



Rhythm signal: 5000 X 12 

 19 -19 -39 0 29 -29 9 9 9 9 -9 -19 
19 -19 -39 0 29 -29 9 9 9 14 -9 -14 
14 -24 -39 4 26 -31 9 14 9 19 -4 -9 
14 -24 -39 4 26 -31 9 14 9 24 -4 -4 
9 -29 -39 9 24 -34 9 19 9 29 0 0 
9 -34 -43 12 26 -39 9 19 14 29 0 0 
4 -39 -43 17 24 -41 9 19 19 29 0 0 
4 -43 -48 19 26 -46 9 19 24 29 0 0 
0 -48 -48 24 24 -48 9 19 29 29 0 0 
0 -34 -34 17 17 -34 9 19 24 24 -4 -4 
0 -19 -19 9 9 -19 4 14 14 14 -9 -9 
0 -4 -4 2 2 -4 4 14 9 9 -14 -14 
0 9 9 -4 -4 9 0 9 0 0 -19 -19 
0 0 0 0 0 0 0 9 0 0 -19 -19 
0 -9 -9 4 4 -9 0 9 0 0 -19 -19 
0 -19 -19 9 9 -19 0 9 0 0 -19 -19 
0 -29 -29 14 14 -29 0 9 0 0 -19 -19 
0 -24 -24 12 12 -24 0 9 0 0 -19 -19 
0 -14 -14 7 7 -14 0 9 0 0 -19 -24 
0 -9 -9 4 4 -9 0 9 0 0 -19 -24 
0 0 0 0 0 0 0 9 0 0 -19 -29 
0 4 4 -2 -2 4 0 9 0 0 -19 -29 
-4 9 14 -2 -9 12 0 9 0 0 -19 -29 
-4 14 19 -4 -12 17 0 9 0 0 -19 -29 
-9 19 29 -4 -19 24 0 9 0 0 -19 -29 
-9 9 19 0 -14 14 0 9 0 0 -19 -29 
-9 0 9 4 -9 4 0 9 4 0 -19 -29 
-9 -9 0 9 -4 -4 0 9 4 0 -19 -29 
-9 -19 -9 14 0 -14 0 9 9 0 -19 -29 
-9 -19 -9 14 0 -14 0 9 9 0 -19 -29 
-9 -19 -9 14 0 -14 0 9 9 0 -19 -29 
-9 -19 -9 14 0 -14 0 9 9 0 -19 -29 
-9 -19 -9 14 0 -14 0 9 9 0 -19 -29 
-9 -9 0 9 -4 -4 0 9 4 0 -19 -29 
-9 4 14 2 -12 9 0 9 0 0 -19 -29 
-9 14 24 -2 -17 19 0 9 -4 0 -19 -29 
-9 29 39 -9 -24 34 0 9 -9 0 -19 -29 
-9 9 19 0 -14 14 0 9 -4 4 -19 -29 
-9 -9 0 9 -4 -4 0 9 0 9 -19 -24 
-9 -29 -19 19 4 -24 0 9 4 14 -19 -24 
-9 -48 -39 29 14 -43 0 9 9 19 -19 -19 
-9 -43 -34 26 12 -39 0 9 9 14 -19 -19 
-4 -39 -34 21 14 -36 0 9 9 9 -19 -19 
-4 -34 -29 19 12 -31 0 9 9 4 -19 -19 
0 -29 -29 14 14 -29 0 9 9 0 -19 -19 
0 -14 -14 7 7 -14 0 9 9 0 -19 -24 
0 0 0 0 0 0 0 9 9 0 -19 -29 
0 14 14 -7 -7 14 0 9 9 0 -19 -34 
0 29 29 -14 -14 29 0 9 9 0 -19 -39 
0 24 24 -12 -12 24 0 9 9 0 -14 -34 
4 14 9 -9 -2 12 4 9 9 4 -9 -29 
4 9 4 -7 0 7 4 9 9 4 -4 -24 
9 0 -9 -4 9 -4 9 9 9 9 0 -19 
9 -4 -14 -2 12 -9 9 9 9 9 -4 -19 
9 -9 -19 0 14 -14 9 9 9 9 -9 -19 
9 -14 -24 2 17 -19 9 9 9 9 -14 -19 
9 -19 -29 4 19 -24 9 9 9 9 -19 -19 
4 -14 -19 4 12 -17 9 9 9 9 -19 -19 
0 -9 -9 4 4 -9 9 4 4 4 -19 -24 
0 -9 -9 4 4 -9 9 4 4 4 -19 -24 
0 -4 -4 2 2 -4 9 0 0 4 -19 -29 
0 -4 -4 2 2 -4 9 0 0 4 -19 -29 
-4 0 4 2 -4 2 9 0 0 4 -19 -34 
-4 4 9 0 -7 7 9 0 0 4 -19 -34 
0 9 9 -4 -4 9 9 0 0 4 -19 -34 
4 9 4 -7 0 7 9 4 4 9 -14 -29 
9 4 -4 -7 7 0 9 14 9 14 -9 -19 
9 9 0 -9 4 4 9 19 14 19 -9 -14 
14 14 0 -14 7 7 14 29 24 24 -4 -9 
14 9 -4 -12 9 2 14 34 24 24 0 -4 
19 4 -14 -12 17 -4 19 39 29 29 4 4 
24 0 -24 -12 24 -12 19 39 29 34 4 9 
34 -4 -39 -14 36 -21 19 43 34 39 9 19 
34 24 -9 -29 21 7 19 43 39 39 9 14 
39 53 14 -46 12 34 14 43 43 43 14 9 
39 73 34 -56 2 53 14 43 43 48 19 9 
39 97 58 -68 -9 78 14 43 48 53 24 9 
39 82 43 -61 -2 63 14 43 53 58 24 14 
43 63 19 -53 12 41 14 43 58 63 24 19 
43 63 19 -53 12 41 9 43 58 68 24 19 
48 63 14 -56 17 39 4 43 58 73 29 24 
53 78 24 -65 14 51 4 48 63 73 34 29 
58 97 39 -78 9 68 4 53 68 78 43 34 
63 102 39 -82 12 70 4 58 73 78 43 39 
73 112 39 -92 17 75 4 63 82 82 43 43 
92 136 43 -114 24 90 0 63 82 82 43 43 
112 161 48 -136 31 104 -9 63 82 82 48 43 
117 165 48 -141 34 107 -14 58 82 82 48 43 
126 170 43 -148 41 107 -24 48 78 82 53 43 
126 165 39 -146 43 102 -29 48 78 87 58 48 
122 161 39 -141 41 100 -39 48 78 92 63 53 
122 165 43 -143 39 104 -48 43 78 97 63 53 
126 170 43 -148 41 107 -58 39 78 107 68 58 
126 156 29 -141 48 92 -63 29 73 102 68 58 
126 136 9 -131 58 73 -73 14 63 92 73 58 
117 117 0 -117 58 58 -78 4 48 82 63 53 
102 92 -9 -97 56 41 -87 -9 29 73 53 43 
102 92 -9 -97 56 41 -87 -9 29 68 53 39 
97 97 0 -97 48 48 -87 -14 29 63 48 34 
97 97 0 -97 48 48 -87 -14 29 63 48 34 
97 102 4 -100 46 53 -82 -14 29 63 48 34 
92 97 4 -95 43 51 -78 -9 34 63 53 34 
87 92 4 -90 41 48 -73 0 39 58 58 39 
87 78 -9 -82 48 34 -73 0 39 58 53 39 
87 58 -29 -73 58 14 -73 0 39 53 48 39 
87 53 -34 -70 61 9 -68 0 39 48 43 39 
87 43 -43 -65 65 0 -63 4 34 43 39 39 
92 48 -43 -70 68 2 -73 -4 29 34 29 34 
102 53 -48 -78 75 2 -82 -14 24 24 19 29 
102 53 -48 -78 75 2 -78 -14 24 24 19 29 
107 53 -53 -80 80 0 -73 -14 24 24 19 29 
107 43 -63 -75 85 -9 -73 -9 24 24 19 29 
112 29 -82 -70 97 -26 -68 -4 24 24 19 24 
107 24 -82 -65 95 -29 -68 -4 24 24 14 24 
97 14 -82 -56 90 -34 -63 0 24 24 9 19 
73 9 -63 -41 68 -26 -53 0 24 24 9 14 
48 4 -43 -26 46 -19 -39 4 29 29 9 4 
29 -4 -34 -12 31 -19 -24 9 29 29 9 4 
4 -14 -19 4 12 -17 -9 19 34 29 9 4 
0 -14 -14 7 7 -14 -4 19 34 34 14 4 
-4 -14 -9 9 2 -12 4 19 34 39 19 4 
-4 -14 -9 9 2 -12 4 9 19 29 4 -4 
-9 -14 -4 12 -2 -9 0 0 4 19 -9 -14 
-19 -19 0 19 -9 -9 0 0 -4 14 -14 -19 
-29 -29 0 29 -14 -14 4 -4 -14 9 -19 -29 
-39 -29 9 34 -24 -9 0 -9 -14 0 -34 -34 
-53 -24 29 39 -41 2 -4 -19 -19 -14 -48 -43 
-53 -19 34 36 -43 7 -9 -24 -19 -19 -53 -48 
-58 -14 43 36 -51 14 -14 -29 -24 -24 -58 -53 
-63 -43 19 53 -41 -12 -4 -14 -24 -19 -53 -48 
-73 -73 0 73 -36 -36 4 0 -19 -14 -48 -43 
-73 -73 0 73 -36 -36 9 0 -19 -9 -43 -43 
-73 -73 0 73 -36 -36 19 0 -14 -4 -39 -39 
-73 -68 4 70 -39 -31 19 0 -14 -4 -39 -39 
-68 -58 9 63 -39 -24 19 0 -14 -9 -39 -39 
-68 -53 14 61 -41 -19 19 0 -14 -9 -39 -39 
-68 -48 19 58 -43 -14 19 0 -14 -9 -39 -39 
-63 -48 14 56 -39 -17 19 0 -14 -9 -39 -39 
-58 -48 9 53 -34 -19 14 0 -14 -9 -39 -39 
-53 -39 14 46 -34 -12 14 0 -19 -14 -39 -43 
-48 -24 24 36 -36 0 9 -4 -24 -19 -43 -48 
-58 -34 24 46 -41 -4 9 -4 -24 -19 -43 -48 
-68 -48 19 58 -43 -14 9 -4 -24 -19 -48 -53 
-78 -73 4 75 -41 -34 14 -4 -24 -19 -48 -53 
-92 -97 -4 95 -43 -51 24 -4 -29 -19 -48 -53 
-107 -97 9 102 -58 -43 29 -14 -43 -19 -48 -53 
-122 -97 24 109 -73 -36 39 -29 -58 -19 -43 -48 
-131 -92 39 112 -85 -26 43 -43 -82 -29 -48 -53 
-146 -82 63 114 -104 -9 53 -63 -112 -43 -58 -58 
-151 -78 73 114 -112 -2 53 -82 -136 -34 -58 -58 
-156 -73 82 114 -119 4 53 -102 -161 -24 -53 -58 
-141 -48 92 95 -117 21 39 -136 -180 4 -29 -39 
-122 -24 97 73 -109 36 19 -170 -204 39 -4 -14 
-97 -24 73 61 -85 24 19 -200 -258 34 0 0 
-73 -29 43 51 -58 7 24 -229 -312 24 9 14 
-43 29 73 7 -58 51 -24 -312 -405 48 43 58 
-14 92 107 -39 -61 100 -73 -395 -497 78 82 102 
9 219 209 -114 -100 214 -146 -488 -600 102 126 156 
34 346 312 -190 -139 329 -224 -585 -702 126 175 214 
63 434 370 -248 -153 402 -307 -692 -839 122 200 263 
92 522 429 -307 -168 475 -390 -800 -976 112 224 312 
102 556 453 -329 -175 505 -439 -893 -1112 48 209 326 
117 590 473 -353 -178 531 -492 -990 -1249 -14 190 341 
175 531 356 -353 -90 444 -517 -995 -1293 -126 131 317 
234 473 239 -353 -2 356 -546 -1005 -1342 -239 73 292 
287 292 4 -290 141 148 -473 -893 -1283 -385 -39 224 
341 107 -234 -224 287 -63 -400 -780 -1220 -531 -156 151 
385 -117 -502 -134 444 -309 -263 -566 -1044 -653 -273 68 
434 -341 -775 -46 605 -558 -122 -346 -868 -780 -395 -19 
434 -400 -834 -17 634 -617 -58 -278 -780 -780 -405 -34 
434 -458 -893 12 663 -675 9 -204 -688 -780 -414 -48 
439 -390 -829 -24 634 -610 -34 -209 -619 -692 -361 -14 
444 -317 -761 -63 602 -539 -78 -219 -551 -600 -302 24 
429 -234 -663 -97 546 -448 -102 -204 -478 -507 -239 48 
409 -151 -561 -129 485 -356 -126 -185 -400 -414 -170 78 
346 -146 -492 -100 419 -319 -112 -151 -336 -351 -136 73 
278 -136 -414 -70 346 -275 -97 -112 -268 -283 -102 63 
200 -112 -312 -43 256 -212 -97 -122 -244 -234 -92 39 
117 -82 -200 -17 158 -141 -97 -136 -219 -180 -82 9 
82 -87 -170 2 126 -129 -68 -107 -175 -146 -73 -4 
43 -97 -141 26 92 -119 -34 -73 -131 -107 -58 -19 
9 -97 -107 43 58 -102 -9 -48 -97 -87 -48 -24 
-24 -97 -73 61 24 -85 14 -19 -63 -63 -39 -29 
-43 -92 -48 68 2 -70 19 -14 -53 -53 -39 -34 
-63 -82 -19 73 -21 -51 29 -4 -43 -39 -34 -43 
-58 -78 -19 68 -19 -48 29 0 -39 -34 -39 -43 
-53 -68 -14 61 -19 -41 34 4 -34 -29 -43 -48 
-53 -63 -9 58 -21 -36 34 4 -29 -29 -43 -48 
-48 -58 -9 53 -19 -34 34 9 -24 -24 -48 -48 
-48 -58 -9 53 -19 -34 34 9 -19 -24 -43 -48 
-43 -63 -19 53 -12 -41 39 14 -9 -19 -34 -43 
-43 -68 -24 56 -9 -46 39 14 -9 -19 -29 -43 
-39 -78 -39 58 0 -58 43 19 -4 -19 -24 -39 
-43 -78 -34 61 -4 -56 43 19 0 -14 -24 -39 
-48 -82 -34 65 -7 -58 43 24 9 -4 -24 -34 
-48 -87 -39 68 -4 -63 43 24 9 -4 -24 -34 
-48 -97 -48 73 0 -73 43 24 9 -4 -24 -34 
-53 -92 -39 73 -7 -65 43 24 9 -4 -24 -34 
-58 -82 -24 70 -17 -53 39 29 9 -4 -24 -34 
-68 -68 0 68 -34 -34 39 29 9 -4 -24 -34 
-78 -48 29 63 -53 -9 34 29 9 0 -24 -34 
-73 -34 39 53 -56 2 29 24 9 -4 -29 -39 
-63 -19 43 41 -53 12 24 14 9 -9 -34 -43 
-63 -19 43 41 -53 12 19 9 9 -14 -39 -48 
-63 -19 43 41 -53 12 9 4 14 -19 -43 -53 
-58 -34 24 46 -41 -4 14 9 19 -9 -39 -48 
-53 -48 4 51 -29 -21 24 14 24 0 -29 -39 
-48 -48 0 48 -24 -24 29 19 24 4 -24 -34 
-43 -48 -4 46 -19 -26 39 29 29 14 -19 -24 
-43 -63 -19 53 -12 -41 43 29 29 14 -14 -24 
-48 -78 -29 63 -9 -53 48 29 29 14 -9 -19 
-48 -87 -39 68 -4 -63 48 29 29 14 -9 -14 
-48 -97 -48 73 0 -73 53 29 29 14 -4 -9 
-48 -78 -29 63 -9 -53 48 29 29 9 -9 -14 
-43 -58 -14 51 -14 -36 39 29 24 4 -14 -24 
-39 -39 0 39 -19 -19 34 29 24 4 -14 -24 
-34 -14 19 24 -26 2 29 29 19 0 -19 -29 
-39 -24 14 31 -26 -4 29 29 19 4 -19 -29 
-43 -34 9 39 -26 -12 29 24 24 9 -19 -29 
-43 -43 0 43 -21 -21 29 24 24 14 -19 -29 
-43 -53 -9 48 -17 -31 29 24 24 19 -19 -29 
-43 -58 -14 51 -14 -36 24 24 24 19 -19 -29 
-43 -68 -24 56 -9 -46 19 24 24 19 -19 -24 
-48 -78 -29 63 -9 -53 29 24 24 19 -19 -19 
-53 -92 -39 73 -7 -65 39 29 24 24 -19 -14 
-48 -63 -14 56 -17 -39 29 29 24 24 -19 -19 
-43 -29 14 36 -29 -7 19 29 24 24 -19 -29 
-48 -43 4 46 -26 -19 24 29 24 24 -9 -24 
-53 -58 -4 56 -24 -31 34 29 29 29 0 -14 
-53 -43 9 48 -31 -17 29 29 29 29 -4 -19 
-53 -29 24 41 -39 -2 24 24 29 29 -14 -24 
-48 -29 19 39 -34 -4 24 24 29 29 -14 -24 
-39 -29 9 34 -24 -9 24 24 29 29 -14 -24 
-34 -29 4 31 -19 -12 24 24 29 29 -14 -24 
-29 -29 0 29 -14 -14 24 24 29 29 -14 -19 
-24 -29 -4 26 -9 -17 24 24 29 29 -14 -19 
-19 -24 -4 21 -7 -14 19 24 29 24 -14 -19 
-19 -24 -4 21 -7 -14 19 24 29 24 -14 -19 
-19 -29 -9 24 -4 -19 19 24 29 19 -14 -19 
-19 -34 -14 26 -2 -24 19 24 29 19 -14 -19 
-19 -39 -19 29 0 -29 19 29 29 24 -9 -14 
-19 -48 -29 34 4 -39 19 29 34 24 -4 -9 
-24 -63 -39 43 7 -51 24 34 39 29 4 -4 
-24 -63 -39 43 7 -51 24 34 39 29 0 -9 
-24 -63 -39 43 7 -51 24 34 39 29 -4 -14 
-29 -48 -19 39 -4 -34 24 34 39 29 -9 -14 
-34 -34 0 34 -17 -17 24 29 39 24 -14 -14 
-34 -39 -4 36 -14 -21 24 29 39 24 -19 -14 
-39 -48 -9 43 -14 -29 24 29 39 24 -24 -14 
-14 -34 -19 24 2 -26 24 34 43 29 -19 -9 
14 -19 -34 2 24 -26 24 39 48 39 -9 -4 
24 -9 -34 -7 29 -21 24 43 53 43 -4 0 
39 0 -39 -19 39 -19 29 48 58 48 4 4 
34 4 -29 -19 31 -12 24 43 53 43 0 0 
24 9 -14 -17 19 -2 19 39 48 39 -4 -4 
19 9 -9 -14 14 0 14 34 48 34 -9 -9 
14 9 -4 -12 9 2 9 29 43 29 -14 -14 
9 9 0 -9 4 4 4 29 43 29 -14 -14 
4 9 4 -7 0 7 0 29 43 29 -14 -14 
0 9 9 -4 -4 9 -4 29 43 29 -14 -14 
-4 4 9 0 -7 7 -9 24 43 29 -19 -14 
-4 -9 -4 7 0 -7 -4 24 43 29 -19 -9 
0 -24 -24 12 12 -24 0 24 43 29 -14 -4 
0 -39 -39 19 19 -39 4 24 43 29 -14 0 
0 -58 -58 29 29 -58 9 29 43 34 -9 4 
0 -48 -48 24 24 -48 9 29 43 34 -9 9 
4 -34 -39 14 21 -36 14 29 48 39 -4 14 
4 -34 -39 14 21 -36 19 34 53 39 -4 14 
4 -34 -39 14 21 -36 24 43 58 39 0 14 
4 -19 -24 7 14 -21 14 39 48 34 0 9 
0 0 0 0 0 0 4 34 34 29 0 4 
0 9 9 -4 -4 9 9 34 34 24 0 0 
0 19 19 -9 -9 19 19 34 34 19 0 -4 
0 4 4 -2 -2 4 14 34 39 24 0 0 
4 -14 -19 4 12 -17 9 34 48 34 0 9 
9 -14 -24 2 17 -19 9 29 53 39 0 14 
14 -14 -29 0 21 -21 4 24 58 48 -4 19 
14 -9 -24 -2 19 -17 4 24 58 48 -4 14 
9 0 -9 -4 9 -4 0 24 58 48 -4 9 
4 4 0 -4 2 2 0 24 58 48 -4 4 
0 14 14 -7 -7 14 -4 29 63 48 -4 0 
0 4 4 -2 -2 4 0 34 63 48 0 4 
0 -9 -9 4 4 -9 4 43 68 53 9 9 
4 -9 -14 2 9 -12 4 43 68 53 9 9 
9 -9 -19 0 14 -14 4 43 73 53 9 9 
9 -14 -24 2 17 -19 4 43 73 53 9 9 
9 -24 -34 7 21 -29 4 39 73 53 4 4 
9 -29 -39 9 24 -34 4 39 73 53 4 4 
4 -34 -39 14 21 -36 0 39 73 53 4 9 
4 -24 -29 9 17 -26 0 39 73 48 4 9 
9 -14 -24 2 17 -19 0 39 68 43 4 9 
14 -9 -24 -2 19 -17 0 39 68 48 4 9 
19 -4 -24 -7 21 -14 4 43 63 53 4 14 
29 4 -24 -17 26 -9 4 43 63 53 4 14 
39 14 -24 -26 31 -4 9 39 68 58 0 9 
43 19 -24 -31 34 -2 9 39 68 58 0 9 
53 29 -24 -41 39 2 9 39 73 58 0 9 
48 29 -19 -39 34 4 9 39 73 63 0 9 
43 24 -19 -34 31 2 9 39 73 68 0 9 
34 14 -19 -24 26 -2 9 39 73 73 0 9 
24 4 -19 -14 21 -7 9 39 78 78 0 14 
19 14 -4 -17 12 4 9 39 73 73 0 14 
9 24 14 -17 -2 19 9 43 68 68 0 14 
4 39 34 -21 -14 36 4 43 63 63 0 14 
0 53 53 -26 -26 53 0 43 58 58 0 14 
9 39 29 -24 -9 34 4 48 68 68 9 19 
24 24 0 -24 12 12 9 58 82 78 19 24 
39 29 -9 -34 24 9 9 58 87 78 19 24 
53 34 -19 -43 36 7 9 63 97 78 19 24 
53 39 -14 -46 34 12 9 63 97 78 14 24 
53 48 -4 -51 29 21 9 68 97 73 9 24 
53 48 -4 -51 29 21 9 68 97 73 9 24 
53 48 -4 -51 29 21 9 73 102 73 9 24 
53 48 -4 -51 29 21 9 73 102 73 14 29 
53 43 -9 -48 31 17 14 78 107 78 24 34 
53 43 -9 -48 31 17 14 78 112 78 24 34 
53 39 -14 -46 34 12 19 82 117 82 24 34 
48 39 -9 -43 29 14 24 82 117 82 24 34 
43 39 -4 -41 24 17 29 87 117 82 24 34 
48 43 -4 -46 26 19 34 87 117 82 24 34 
53 53 0 -53 26 26 39 87 117 82 19 34 
53 63 9 -58 21 36 34 92 117 82 19 34 
53 78 24 -65 14 51 29 97 117 82 19 39 
53 87 34 -70 9 61 24 92 117 82 19 39 
53 102 48 -78 2 75 19 87 117 82 19 39 
53 97 43 -75 4 70 19 87 117 82 19 39 
53 92 39 -73 7 65 19 87 117 87 24 39 
53 82 29 -68 12 56 19 87 117 87 29 39 
48 68 19 -58 14 43 24 92 117 92 34 43 
48 73 24 -61 12 48 24 92 117 92 34 43 
48 82 34 -65 7 58 24 92 117 87 34 48 
48 87 39 -68 4 63 24 92 117 87 34 48 
48 92 43 -70 2 68 24 97 117 87 34 48 
48 97 48 -73 0 73 24 97 117 82 29 48 
48 102 53 -75 -2 78 19 97 117 78 24 43 
48 107 58 -78 -4 82 14 97 117 78 19 43 
48 112 63 -80 -7 87 9 92 112 73 14 39 
48 92 43 -70 2 68 14 92 112 73 19 43 
48 73 24 -61 12 48 24 92 112 73 24 48 
48 82 34 -65 7 58 24 92 107 73 24 43 
53 92 39 -73 7 65 29 92 102 73 29 34 
48 82 34 -65 7 58 29 92 102 78 29 39 
43 73 29 -58 7 51 24 92 97 82 29 43 
39 68 29 -53 4 48 24 92 92 87 29 43 
29 63 34 -46 -2 48 24 92 87 97 29 48 
29 68 39 -48 -4 53 24 87 87 92 24 43 
24 73 48 -48 -12 61 24 78 82 82 19 39 
19 87 68 -53 -24 78 14 73 78 73 14 34 
14 107 92 -61 -39 100 4 63 68 63 4 24 
14 102 87 -58 -36 95 4 58 63 63 0 24 
14 92 78 -53 -31 85 4 53 58 58 -4 24 
14 87 73 -51 -29 80 0 48 53 58 -4 24 
14 78 63 -46 -24 70 -4 43 48 58 -9 24 
14 78 63 -46 -24 70 -4 43 48 58 -9 24 
19 73 53 -46 -17 63 -4 39 43 58 -9 24 
19 73 53 -46 -17 63 -4 39 43 53 -9 19 
24 73 48 -48 -12 61 -4 39 39 48 -14 9 
24 73 48 -48 -12 61 -4 39 39 48 -14 9 
24 78 53 -51 -14 65 -4 39 39 48 -9 9 
24 82 58 -53 -17 70 -4 34 34 48 -9 4 
24 87 63 -56 -19 75 -4 24 29 43 -4 0 
19 78 58 -48 -19 68 -4 24 29 43 -4 0 
14 68 53 -41 -19 60 -9 19 24 48 -9 0 
14 48 34 -31 -9 41 -9 19 24 48 -9 0 
9 24 14 -17 -2 19 -9 14 24 48 -9 0 
9 24 14 -17 -2 19 -9 14 24 48 -9 0 
9 19 9 -14 0 14 -9 14 24 43 -9 0 
9 19 9 -14 0 14 -9 14 24 43 -9 0 
4 19 14 -12 -4 17 -4 14 24 43 -9 0 
4 14 9 -9 -2 12 -4 14 29 43 -9 4 
4 9 4 -7 0 7 0 19 34 39 -9 9 
9 9 0 -9 4 4 0 19 34 39 -9 9 
14 9 -4 -12 9 2 4 14 39 39 -9 14 
9 4 -4 -7 7 0 4 19 34 39 -9 9 
4 -4 -9 0 7 -7 4 24 29 43 -14 4 
4 0 -4 -2 4 -2 4 24 24 43 -14 0 
4 9 4 -7 0 7 4 24 19 43 -19 -4 
4 9 4 -7 0 7 0 24 19 43 -19 -4 
9 14 4 -12 2 9 -4 24 14 39 -19 -4 
14 14 0 -14 7 7 -4 19 14 34 -24 -9 
19 19 0 -19 9 9 -9 9 9 24 -29 -14 
19 29 9 -24 4 19 -9 9 9 24 -29 -14 
19 43 24 -31 -2 34 -9 9 9 24 -29 -14 
19 29 9 -24 4 19 -9 9 9 24 -29 -14 
19 14 -4 -17 12 4 -4 14 14 29 -24 -9 
14 4 -9 -9 12 -2 0 14 14 29 -19 -9 
4 -9 -14 2 9 -12 4 14 14 29 -14 -9 
4 -24 -29 9 17 -26 9 14 14 29 -14 -9 
0 -39 -39 19 19 -39 14 14 14 24 -9 -9 
0 -24 -24 12 12 -24 9 14 14 24 -19 -9 
0 -4 -4 2 2 -4 0 19 9 19 -29 -14 
0 14 14 -7 -7 14 -4 14 9 14 -34 -19 
0 39 39 -19 -19 39 -14 4 4 9 -43 -24 
-4 19 24 -7 -14 21 -14 4 4 9 -43 -24 
-9 0 9 4 -9 4 -14 4 4 9 -43 -24 
-4 0 4 2 -4 2 -14 4 4 9 -43 -24 
0 -4 -4 2 2 -4 -19 4 4 14 -39 -24 
0 4 4 -2 -2 4 -19 4 4 14 -39 -24 
-4 14 19 -4 -12 17 -19 4 4 14 -39 -29 
-4 19 24 -7 -14 21 -19 4 4 14 -39 -29 
-9 29 39 -9 -24 34 -19 4 4 19 -39 -34 
-9 19 29 -4 -19 24 -14 4 9 19 -34 -29 
-9 4 14 2 -12 9 -9 4 14 19 -29 -24 
-9 9 19 0 -14 14 -14 4 9 19 -34 -29 
-9 14 24 -2 -17 19 -19 4 4 14 -39 -34 
-9 9 19 0 -14 14 -19 4 4 14 -39 -29 
-4 0 4 2 -4 2 -14 4 4 14 -39 -24 
-4 0 4 2 -4 2 -9 4 4 14 -39 -19 
0 0 0 0 0 0 -4 4 4 14 -39 -14 
0 0 0 0 0 0 0 4 4 14 -39 -14 
0 -4 -4 2 2 -4 4 4 4 14 -34 -14 
0 -4 -4 2 2 -4 9 4 4 14 -34 -14 
4 -4 -9 0 7 -7 14 4 4 14 -29 -14 
4 0 -4 -2 4 -2 9 4 4 14 -29 -14 
4 4 0 -4 2 2 0 4 4 14 -29 -14 
4 14 9 -9 -2 12 -9 4 4 14 -29 -14 
4 29 24 -17 -9 26 -19 0 4 9 -29 -14 
4 14 9 -9 -2 12 -19 -4 4 9 -29 -14 
9 0 -9 -4 9 -4 -19 -9 4 9 -29 -14 
9 0 -9 -4 9 -4 -19 -9 4 9 -29 -14 
4 0 -4 -2 4 -2 -19 -14 0 9 -29 -14 
4 -9 -14 2 9 -12 -14 -9 9 14 -24 -14 
4 -19 -24 7 14 -21 -9 0 19 24 -14 -14 
4 -14 -19 4 12 -17 -9 0 19 24 -14 -19 
4 -9 -14 2 9 -12 -9 4 19 29 -14 -24 
9 4 -4 -7 7 0 -9 0 14 24 -19 -24 
19 24 4 -21 7 14 -9 -4 9 14 -24 -29 
14 24 9 -19 2 17 -9 0 4 9 -29 -29 
4 29 24 -17 -9 26 -9 4 0 4 -34 -29 
4 24 19 -14 -7 21 -9 4 0 4 -34 -24 
0 19 19 -9 -9 19 -4 0 0 4 -29 -19 
0 14 14 -7 -7 14 -4 0 0 4 -29 -19 
0 4 4 -2 -2 4 -4 -4 0 4 -29 -19 
0 -4 -4 2 2 -4 -9 -9 0 4 -29 -19 
0 -14 -14 7 7 -14 -14 -14 0 9 -29 -24 
0 -19 -19 9 9 -19 -14 -14 0 9 -29 -24 
0 -29 -29 14 14 -29 -14 -14 0 14 -29 -24 
0 -4 -4 2 2 -4 -19 -14 0 14 -29 -19 
0 19 19 -9 -9 19 -24 -14 0 14 -29 -14 
0 48 48 -24 -24 48 -29 -14 0 14 -29 -14 
4 78 73 -41 -34 75 -34 -14 0 14 -29 -14 
4 48 43 -26 -19 46 -29 -14 0 9 -29 -14 
4 19 14 -12 -4 17 -19 -9 4 4 -29 -14 
4 4 0 -4 2 2 -9 -4 9 0 -29 -14 
4 -9 -14 2 9 -12 0 0 14 -4 -29 -14 
4 -9 -14 2 9 -12 0 0 9 -4 -29 -14 
4 -9 -14 2 9 -12 -4 0 4 -4 -34 -14 
4 0 -4 -2 4 -2 -9 -4 0 -4 -34 -14 
4 14 9 -9 -2 12 -14 -9 -4 -9 -39 -19 
4 19 14 -12 -4 17 -14 -9 -9 -9 -39 -19 
4 29 24 -17 -9 26 -14 -9 -14 -9 -43 -24 
4 34 29 -19 -12 31 -14 -9 -14 -9 -43 -24 
4 43 39 -24 -17 41 -14 -14 -19 -9 -48 -29 
4 43 39 -24 -17 41 -14 -14 -19 -9 -48 -29 
4 43 39 -24 -17 41 -14 -14 -14 -9 -48 -29 
9 34 24 -21 -7 29 -14 -14 -14 -9 -48 -29 
14 19 4 -17 4 12 -14 -9 -14 -4 -43 -29 
9 4 -4 -7 7 0 -14 -4 -9 0 -39 -24 
4 -9 -14 2 9 -12 -14 0 -4 9 -29 -14 
0 4 4 -2 -2 4 -14 -4 -9 4 -34 -19 
-4 19 24 -7 -14 21 -14 -14 -19 -4 -43 -24 
-4 19 24 -7 -14 21 -14 -14 -19 -4 -43 -24 
-4 24 29 -9 -17 26 -14 -14 -19 -4 -43 -24 
-4 24 29 -9 -17 26 -14 -14 -19 -4 -43 -24 
0 24 24 -12 -12 24 -14 -14 -19 0 -39 -19 
9 14 4 -12 2 9 -14 -9 -19 0 -39 -19 
19 4 -14 -12 17 -4 -14 -4 -14 0 -39 -19 
14 0 -14 -7 14 -7 -14 -4 -14 0 -39 -19 
4 -4 -9 0 7 -7 -9 0 -9 -4 -39 -24 
-4 -4 0 4 -2 -2 -9 0 -9 -4 -39 -24 
-14 -4 9 9 -12 2 -9 0 -4 -4 -39 -24 
-19 0 19 9 -19 9 -9 0 -4 -4 -39 -24 
-29 9 39 9 -34 24 -9 4 0 -4 -34 -24 
-19 14 34 2 -26 24 -9 4 0 -4 -29 -24 
-4 19 24 -7 -14 21 -9 4 4 -4 -24 -24 
4 24 19 -14 -7 21 -9 4 4 -4 -24 -24 
19 29 9 -24 4 19 -9 4 4 -4 -24 -19 
14 34 19 -24 -2 26 -9 4 4 -4 -24 -19 
9 43 34 -26 -12 39 -4 4 0 -4 -29 -19 
4 43 39 -24 -17 41 0 4 0 -4 -29 -19 
0 48 48 -24 -24 48 4 4 0 -4 -34 -19 
0 34 34 -17 -17 34 4 4 0 -4 -34 -19 
0 19 19 -9 -9 19 4 4 0 -4 -34 -19 
0 4 4 -2 -2 4 4 4 0 -4 -34 -19 
-4 -9 -4 7 0 -7 4 4 0 -4 -34 -19 
-4 -9 -4 7 0 -7 4 4 0 -4 -34 -19 
-9 -14 -4 12 -2 -9 0 4 4 -4 -34 -19 
-14 -14 0 14 -7 -7 0 4 4 -4 -34 -14 
-24 -14 9 19 -17 -2 -4 4 9 -4 -29 -9 
-24 -19 4 21 -14 -7 -4 4 9 -4 -29 -14 
-24 -29 -4 26 -9 -17 0 4 4 -4 -29 -24 
-14 -29 -14 21 0 -21 0 4 4 -4 -29 -24 
-4 -24 -19 14 7 -21 0 4 4 -4 -34 -24 
-9 -34 -24 21 7 -29 0 4 4 -4 -34 -24 
-14 -43 -29 29 7 -36 0 4 4 -4 -34 -24 
-14 -43 -29 29 7 -36 0 4 4 -4 -34 -24 
-19 -43 -24 31 2 -34 0 4 4 -4 -34 -24 
-9 -19 -9 14 0 -14 0 4 4 -9 -34 -24 
0 9 9 -4 -4 9 0 9 4 -14 -34 -24 
9 34 24 -21 -7 29 0 9 4 -19 -34 -24 
19 63 43 -41 -12 53 0 9 4 -24 -34 -24 
9 48 39 -29 -14 43 0 9 4 -19 -34 -24 
0 29 29 -14 -14 29 0 9 4 -14 -34 -24 
0 14 14 -7 -7 14 0 9 4 -9 -34 -24 
0 0 0 0 0 0 4 9 4 -4 -34 -24 
0 0 0 0 0 0 4 9 4 -9 -34 -29 
0 -4 -4 2 2 -4 4 9 4 -14 -39 -34 
0 -4 -4 2 2 -4 4 4 4 -14 -39 -34 
-4 -4 0 4 -2 -2 4 0 0 -14 -39 -34 
-9 -4 4 7 -7 0 4 0 0 -14 -39 -34 
-19 -4 14 12 -17 4 4 0 0 -19 -39 -29 
-24 -9 14 17 -19 2 4 4 4 -19 -34 -29 
-34 -14 19 24 -26 2 9 9 9 -19 -29 -24 
-34 -24 9 29 -21 -7 14 9 9 -19 -29 -24 
-29 -34 -4 31 -12 -19 19 14 9 -14 -29 -24 
-29 -24 4 26 -17 -9 14 14 9 -14 -29 -24 
-29 -14 14 21 -21 0 9 14 9 -19 -29 -24 
-24 0 24 12 -24 12 9 9 9 -19 -29 -24 
-19 14 34 2 -26 24 9 4 4 -19 -34 -24 
-14 29 43 -7 -29 36 9 4 4 -19 -34 -24 
-9 48 58 -19 -34 53 9 0 0 -19 -39 -29 
-9 39 48 -14 -29 43 9 0 0 -19 -39 -29 
-9 29 39 -9 -24 34 9 0 0 -19 -39 -29 
-9 19 29 -4 -19 24 9 0 0 -19 -39 -29 
-9 9 19 0 -14 14 9 0 0 -19 -39 -29 
-9 4 14 2 -12 9 4 0 0 -19 -39 -29 
-14 0 14 7 -14 7 0 0 0 -24 -39 -29 
-14 -4 9 9 -12 2 -4 0 0 -24 -39 -29 
-19 -9 9 14 -14 0 -9 0 0 -29 -39 -29 
-29 -19 9 24 -19 -4 -9 0 0 -29 -39 -29 
-39 -34 4 36 -21 -14 -9 0 0 -29 -39 -29 
-48 -43 4 46 -26 -19 -9 0 0 -29 -39 -29 
-58 -58 0 58 -29 -29 -9 0 0 -29 -39 -29 
-48 -39 9 43 -29 -14 -9 0 0 -34 -39 -29 
-34 -19 14 26 -24 -2 -9 0 0 -39 -39 -34 
-24 0 24 12 -24 12 -9 0 0 -43 -39 -34 
-9 19 29 -4 -19 24 -9 0 0 -48 -39 -39 
-9 19 29 -4 -19 24 0 4 4 -39 -34 -39 
-9 19 29 -4 -19 24 9 14 14 -29 -29 -39 
-9 19 29 -4 -19 24 19 19 19 -19 -24 -39 
-9 19 29 -4 -19 24 29 29 29 -9 -19 -39 
-9 19 29 -4 -19 24 24 24 24 -14 -24 -39 
-9 19 29 -4 -19 24 19 19 19 -24 -29 -39 
-9 19 29 -4 -19 24 14 14 14 -29 -34 -39 
-9 19 29 -4 -19 24 9 9 9 -39 -39 -39 
-9 19 29 -4 -19 24 9 9 9 -39 -39 -39 
-9 14 24 -2 -17 19 4 9 9 -43 -43 -43 
-9 14 24 -2 -17 19 4 9 9 -43 -43 -43 
-9 9 19 0 -14 14 0 9 9 -48 -48 -48 
-14 0 14 7 -14 7 0 9 9 -48 -48 -48 
-24 -14 9 19 -17 -2 0 9 9 -48 -48 -48 
-29 -24 4 26 -17 -9 0 9 9 -48 -48 -48 
-39 -39 0 39 -19 -19 0 9 9 -48 -48 -48 
-39 -34 4 36 -21 -14 -4 9 4 -48 -48 -48 
-39 -24 14 31 -26 -4 -9 9 0 -48 -48 -48 
-39 -19 19 29 -29 0 -14 9 -4 -48 -48 -48 
-39 -9 29 24 -34 9 -19 9 -9 -48 -48 -48 
-34 -4 29 19 -31 12 -14 9 -4 -43 -48 -43 
-29 0 29 14 -29 14 -4 14 0 -39 -43 -39 
-24 4 29 9 -26 17 0 14 4 -34 -43 -34 
-19 9 29 4 -24 19 9 19 9 -29 -39 -29 
-19 9 29 4 -24 19 9 19 9 -29 -34 -29 
-19 9 29 4 -24 19 9 19 9 -29 -29 -29 
-19 9 29 4 -24 19 9 19 9 -29 -24 -29 
-19 9 29 4 -24 19 9 19 9 -29 -19 -29 
-19 9 29 4 -24 19 9 19 9 -29 -24 -29 
-24 9 34 7 -29 21 9 14 9 -29 -29 -34 
-24 4 29 9 -26 17 9 14 9 -29 -29 -34 
-29 0 29 14 -29 14 9 9 9 -29 -34 -39 
-29 0 29 14 -29 14 9 9 9 -29 -34 -39 
-34 -4 29 19 -31 12 9 9 9 -29 -39 -43 
-34 -4 29 19 -31 12 9 9 9 -29 -39 -43 
-39 -9 29 24 -34 9 9 9 9 -34 -39 -43 
-34 -9 24 21 -29 7 9 14 9 -34 -34 -39 
-29 -9 19 19 -24 4 14 19 14 -29 -29 -34 
-29 -4 24 17 -26 9 19 24 19 -29 -29 -34 
-24 4 29 9 -26 17 24 29 24 -24 -24 -29 
-19 9 29 4 -24 19 24 34 24 -24 -19 -29 
-9 19 29 -4 -19 24 29 39 29 -24 -14 -24 
0 24 24 -12 -12 24 29 39 29 -24 -14 -24 
14 34 19 -24 -2 26 29 43 34 -19 -9 -19 
19 48 29 -34 -4 39 29 43 39 -19 -9 -19 
24 68 43 -46 -9 56 24 43 43 -14 -4 -19 
24 78 53 -51 -14 65 24 43 43 -9 0 -14 
29 87 58 -58 -14 73 24 43 48 -4 4 -9 
29 82 53 -56 -12 68 24 43 53 0 4 -4 
34 73 39 -53 -2 56 24 43 63 4 9 0 
34 82 48 -58 -7 65 19 43 63 9 14 0 
39 92 53 -65 -7 73 14 43 68 14 19 4 
43 92 48 -68 -2 70 14 48 73 19 24 9 
48 97 48 -73 0 73 14 53 78 24 34 14 
53 92 39 -73 7 65 14 58 82 29 34 19 
63 82 19 -73 21 51 14 63 92 34 34 24 
78 97 19 -87 29 58 9 68 92 34 34 24 
97 112 14 -104 41 63 4 73 97 39 39 29 
102 107 4 -104 48 56 0 73 97 39 39 29 
107 102 -4 -104 56 48 -4 68 97 43 43 34 
107 107 0 -107 53 53 -9 68 97 43 48 39 
102 117 14 -109 43 65 -19 68 97 48 53 43 
102 131 29 -117 36 80 -29 63 97 53 53 43 
107 151 43 -129 31 97 -39 58 97 58 58 48 
107 146 39 -126 34 92 -48 43 87 48 58 48 
107 141 34 -124 36 87 -58 24 73 39 53 43 
97 131 34 -114 31 82 -68 9 53 29 39 34 
82 122 39 -102 21 80 -78 -9 29 14 24 24 
82 126 43 -104 19 85 -78 -14 29 9 24 19 
78 131 53 -104 12 92 -82 -24 24 4 19 9 
78 136 58 -107 9 97 -82 -29 24 4 19 9 
78 141 63 -109 7 102 -82 -34 19 4 19 4 
78 141 63 -109 7 102 -78 -29 24 4 24 4 
73 146 73 -109 0 109 -73 -19 29 0 29 9 
73 136 63 -104 4 100 -73 -19 29 0 24 9 
78 126 48 -102 14 87 -73 -19 29 -4 19 9 
78 112 34 -95 21 73 -68 -14 29 -4 19 9 
78 97 19 -87 29 58 -63 -4 29 -9 14 9 
82 97 14 -90 34 56 -73 -9 29 -14 9 4 
92 92 0 -92 46 46 -82 -14 24 -24 0 0 
92 87 -4 -90 48 41 -78 -14 24 -24 0 0 
87 78 -9 -82 48 34 -73 -14 24 -24 0 0 
87 58 -29 -73 58 14 -73 -9 24 -24 0 0 
82 39 -43 -61 63 -2 -68 -4 24 -24 0 -4 
78 39 -39 -58 58 0 -68 -4 24 -24 -4 -4 
68 43 -24 -56 46 9 -68 -4 19 -29 -14 -9 
43 48 4 -46 19 26 -58 -4 19 -29 -14 -14 
19 53 34 -36 -7 43 -48 -4 19 -29 -19 -24 
-4 34 39 -14 -21 36 -34 4 24 -29 -19 -24 
-34 14 48 9 -41 31 -14 14 29 -24 -14 -19 
-43 4 48 19 -46 26 -4 14 29 -19 -9 -19 
-53 -4 48 29 -51 21 4 19 34 -9 0 -14 
-48 -4 43 26 -46 19 4 14 24 -19 -9 -24 
-39 -4 34 21 -36 14 9 4 14 -29 -24 -34 
-39 -9 29 24 -34 9 14 4 9 -34 -24 -39 
-39 -19 19 29 -29 0 24 4 4 -39 -29 -48 
-48 -29 19 39 -34 -4 24 4 4 -48 -39 -48 
-58 -39 19 48 -39 -9 24 0 0 -58 -48 -53 
-58 -43 14 51 -36 -14 24 0 0 -58 -48 -53 
-58 -53 4 56 -31 -24 24 0 -4 -63 -48 -53 
-68 -68 0 68 -34 -34 24 4 -4 -63 -48 -53 
-78 -82 -4 80 -36 -43 29 14 -4 -63 -48 -53 
-78 -68 9 73 -43 -29 29 9 -4 -63 -48 -53 
-82 -53 29 68 -56 -12 29 0 -4 -63 -48 -58 
-82 -53 29 68 -56 -12 29 0 -4 -63 -48 -58 
-78 -48 29 63 -53 -9 29 0 -4 -68 -48 -58 
-78 -48 29 63 -53 -9 29 0 -4 -68 -48 -58 
-78 -48 29 63 -53 -9 29 0 -4 -68 -48 -58 
-78 -48 29 63 -53 -9 29 0 -4 -68 -48 -58 
-73 -48 24 61 -48 -12 24 4 -4 -68 -48 -53 
-73 -39 34 56 -53 -2 24 4 -9 -73 -48 -53 
-68 -24 43 46 -56 9 19 4 -14 -78 -53 -58 
-73 -24 48 48 -61 12 19 4 -14 -78 -53 -58 
-78 -29 48 53 -63 9 19 4 -9 -78 -58 -63 
-82 -43 39 63 -60 -2 24 4 -9 -78 -58 -63 
-92 -58 34 75 -63 -12 34 4 -9 -78 -58 -63 
-107 -58 48 82 -78 -4 34 0 -24 -78 -58 -73 
-126 -58 68 92 -97 4 34 -9 -43 -78 -63 -82 
-141 -53 87 97 -114 17 34 -19 -73 -87 -73 -97 
-156 -43 112 100 -134 34 34 -34 -102 -102 -87 -117 
-161 -53 107 107 -134 26 43 -43 -112 -92 -82 -112 
-170 -63 107 117 -139 21 58 -53 -122 -82 -73 -107 
-156 -53 102 104 -129 24 53 -78 -126 -53 -43 -82 
-141 -43 97 92 -119 26 48 -102 -136 -19 -14 -53 
-122 -58 63 90 -92 2 58 -117 -175 -24 -9 -48 
-97 -78 19 87 -58 -29 68 -131 -214 -34 0 -39 
-73 -34 39 53 -56 2 29 -200 -292 -9 34 -4 
-43 14 58 14 -51 36 -14 -268 -370 19 73 34 
-29 170 200 -70 -114 185 -97 -375 -478 53 122 102 
-9 326 336 -158 -173 331 -180 -483 -585 92 175 170 
9 444 434 -226 -212 439 -268 -600 -727 97 204 229 
34 561 527 -297 -246 544 -361 -722 -868 102 234 292 
34 605 570 -319 -268 588 -419 -839 -1029 63 234 317 
39 653 614 -346 -287 634 -478 -961 -1190 24 239 341 
87 610 522 -348 -217 566 -512 -990 -1259 -63 200 326 
136 561 424 -348 -143 492 -546 -1024 -1332 -151 161 312 
195 380 185 -287 4 283 -488 -932 -1298 -336 29 239 
253 195 -58 -224 156 68 -424 -839 -1263 -522 -102 161 
302 -29 -331 -136 317 -180 -297 -644 -1117 -683 -239 73 
356 -253 -610 -51 483 -431 -170 -444 -966 -849 -375 -19 
356 -346 -702 -4 529 -524 -87 -351 -868 -873 -405 -53 
356 -439 -795 41 575 -617 0 -253 -771 -902 -439 -87 
361 -405 -766 21 563 -585 -24 -239 -697 -839 -405 -73 
366 -366 -732 0 549 -549 -48 -219 -619 -775 -370 -53 
366 -278 -644 -43 505 -461 -73 -200 -531 -673 -297 -14 
361 -190 -551 -85 456 -370 -97 -180 -444 -566 -224 24 
312 -180 -492 -65 402 -336 -82 -141 -366 -488 -185 29 
258 -165 -424 -46 341 -295 -68 -102 -287 -409 -141 34 
180 -131 -312 -24 246 -222 -73 -112 -263 -351 -126 9 
102 -97 -200 -2 151 -148 -82 -126 -234 -292 -112 -19 
68 -97 -165 14 117 -131 -58 -97 -190 -248 -97 -34 
34 -97 -131 31 82 -114 -34 -63 -141 -204 -78 -48 
4 -92 -97 43 51 -95 -9 -39 -102 -175 -68 -48 
-24 -87 -63 56 19 -75 14 -9 -63 -146 -53 -53 
-39 -78 -39 58 0 -58 19 -4 -48 -126 -48 -58 
-53 -63 -9 58 -21 -36 29 4 -34 -107 -43 -63 
-53 -63 -9 58 -21 -36 29 9 -29 -102 -43 -63 
-58 -58 0 58 -29 -29 34 14 -19 -97 -43 -68 
-63 -58 4 61 -34 -26 34 14 -14 -97 -43 -68 
-68 -58 9 63 -39 -24 34 19 -4 -92 -39 -68 
-68 -53 14 61 -41 -19 34 19 0 -92 -39 -68 
-68 -48 19 58 -43 -14 34 19 4 -87 -34 -73 
-68 -48 19 58 -43 -14 34 19 4 -87 -34 -73 
-68 -48 19 58 -43 -14 34 19 4 -87 -34 -78 
-73 -53 19 63 -46 -17 34 19 9 -82 -34 -78 
-78 -63 14 70 -46 -24 34 24 19 -73 -34 -73 
-78 -73 4 75 -41 -34 34 24 19 -73 -34 -73 
-78 -87 -9 82 -34 -48 34 24 19 -73 -34 -73 
-78 -87 -9 82 -34 -48 34 29 19 -73 -34 -73 
-73 -87 -14 80 -29 -51 39 34 24 -73 -34 -73 
-73 -78 -4 75 -34 -41 39 34 24 -73 -34 -73 
-78 -68 9 73 -43 -29 43 39 29 -68 -34 -73 
-73 -58 14 65 -43 -21 43 39 29 -63 -29 -73 
-63 -43 19 53 -41 -12 48 34 29 -53 -24 -73 
-63 -43 19 53 -41 -12 48 34 29 -48 -19 -73 
-63 -48 14 56 -39 -17 48 34 34 -39 -14 -73 
-63 -53 9 58 -36 -21 48 34 34 -43 -14 -73 
-63 -58 4 61 -34 -26 48 34 39 -48 -19 -73 
-63 -48 14 56 -39 -17 48 34 39 -53 -24 -73 
-63 -39 24 51 -43 -7 48 39 39 -63 -29 -73 
-63 -48 14 56 -39 -17 53 43 39 -63 -29 -73 
-68 -63 4 65 -36 -29 58 48 39 -63 -29 -78 
-68 -68 0 68 -34 -34 58 53 39 -63 -29 -78 
-68 -78 -9 73 -29 -43 63 58 39 -63 -34 -78 
-68 -68 0 68 -34 -34 58 53 39 -63 -34 -78 
-63 -53 9 58 -36 -21 53 48 39 -63 -29 -78 
-58 -39 19 48 -39 -9 53 43 39 -63 -24 -73 
-53 -24 29 39 -41 2 48 39 39 -58 -19 -68 
-58 -29 29 43 -43 0 48 39 39 -58 -19 -68 
-63 -39 24 51 -43 -7 48 34 43 -58 -19 -68 
-63 -43 19 53 -41 -12 48 34 43 -58 -19 -68 
-63 -53 9 58 -36 -21 48 34 43 -58 -19 -68 
-58 -63 -4 61 -26 -34 43 34 43 -58 -19 -68 
-53 -73 -19 63 -17 -46 39 34 43 -58 -19 -63 
-53 -87 -34 70 -9 -61 48 34 43 -58 -19 -58 
-53 -102 -48 78 -2 -75 58 39 43 -53 -19 -53 
-48 -68 -19 58 -14 -43 48 39 43 -58 -19 -58 
-43 -29 14 36 -29 -7 34 39 39 -63 -24 -68 
-48 -39 9 43 -29 -14 39 39 39 -63 -19 -63 
-53 -48 4 51 -29 -21 43 39 39 -68 -9 -53 
-53 -34 19 43 -36 -7 39 39 39 -63 -14 -58 
-53 -19 34 36 -43 7 34 34 39 -53 -24 -63 
-48 -19 29 34 -39 4 34 34 39 -48 -24 -63 
-39 -19 19 29 -29 0 34 34 39 -39 -24 -63 
-39 -19 19 29 -29 0 34 34 39 -43 -24 -63 
-43 -19 24 31 -34 2 34 34 39 -53 -24 -58 
-43 -19 24 31 -34 2 34 34 39 -63 -24 -58 
-48 -14 34 31 -41 9 29 34 39 -73 -24 -58 
-48 -19 29 34 -39 4 29 39 39 -68 -24 -58 
-48 -29 19 39 -34 -4 34 43 43 -63 -24 -58 
-48 -39 9 43 -29 -14 34 48 43 -53 -24 -58 
-48 -48 0 48 -24 -24 39 58 48 -43 -19 -53 
-48 -58 -9 53 -19 -34 39 58 53 -43 -14 -48 
-48 -73 -24 61 -12 -48 43 53 58 -39 -4 -43 
-48 -73 -24 61 -12 -48 43 48 58 -39 -9 -48 
-43 -73 -29 58 -7 -51 43 43 58 -39 -14 -53 
-43 -58 -14 51 -14 -36 43 43 58 -39 -14 -53 
-43 -39 4 41 -24 -17 48 39 58 -43 -9 -48 
-43 -43 0 43 -21 -21 48 39 58 -43 -9 -48 
-39 -48 -9 43 -14 -29 53 39 58 -43 -4 -43 
-34 -43 -9 39 -12 -26 53 43 58 -39 -4 -43 
-24 -34 -9 29 -7 -21 48 48 63 -34 0 -43 
-29 -34 -4 31 -12 -19 48 53 63 -34 0 -43 
-39 -29 9 34 -24 -9 48 58 68 -29 4 -43 
-39 -29 9 34 -24 -9 48 58 68 -29 4 -43 
-34 -29 4 31 -19 -12 48 58 68 -29 4 -43 
-29 -34 -4 31 -12 -19 48 58 68 -29 4 -43 
-24 -39 -14 31 -4 -26 48 58 73 -29 4 -43 
-24 -34 -9 29 -7 -21 48 58 73 -34 4 -43 
-24 -29 -4 26 -9 -17 43 58 68 -39 0 -48 
-24 -29 -4 26 -9 -17 43 58 68 -43 -4 -48 
-24 -24 0 24 -12 -12 39 53 63 -48 -9 -53 
-29 -29 0 29 -14 -14 39 53 63 -43 -9 -53 
-34 -39 -4 36 -14 -21 39 53 63 -39 -9 -53 
-39 -48 -9 43 -14 -29 39 53 63 -34 -9 -53 
-48 -58 -9 53 -19 -34 39 58 63 -24 -9 -53 
-39 -53 -14 46 -12 -34 39 58 63 -24 -9 -48 
-29 -48 -19 39 -4 -34 43 53 68 -19 -4 -43 
-24 -53 -29 39 2 -41 48 58 73 -19 -4 -43 
-14 -63 -48 39 17 -56 53 63 78 -19 0 -43 
-19 -53 -34 36 7 -43 43 58 73 -19 0 -43 
-29 -43 -14 36 -7 -29 34 53 63 -24 0 -48 
-34 -43 -9 39 -12 -26 39 53 68 -24 0 -48 
-39 -39 0 39 -19 -19 48 53 73 -29 0 -53 
-39 -39 0 39 -19 -19 43 53 73 -29 0 -53 
-34 -39 -4 36 -14 -21 39 53 73 -29 0 -53 
-29 -24 4 26 -17 -9 39 48 73 -29 0 -53 
-24 -4 19 14 -21 7 34 43 68 -29 -4 -58 
-19 -4 14 12 -17 4 34 43 68 -29 -4 -58 
-14 -4 9 9 -12 2 34 43 68 -29 -4 -58 
-14 -4 9 9 -12 2 34 43 68 -29 -4 -58 
-9 -4 4 7 -7 0 34 48 73 -29 -4 -58 
-9 -14 -4 12 -2 -9 39 53 73 -24 0 -53 
-9 -29 -19 19 4 -24 43 63 78 -19 9 -48 
-4 -29 -24 17 9 -26 43 63 78 -19 9 -48 
0 -29 -29 14 14 -29 43 63 82 -14 9 -48 
-4 -39 -34 21 14 -36 48 63 87 -9 9 -48 
-9 -53 -43 31 17 -48 53 68 97 -4 14 -43 
-14 -63 -48 39 17 -56 53 73 102 0 19 -39 
-24 -73 -48 48 12 -61 58 78 112 4 24 -29 
-24 -63 -39 43 7 -51 48 68 107 -4 19 -34 
-29 -53 -24 41 -2 -39 39 58 97 -19 9 -39 
-29 -48 -19 39 -4 -34 34 53 92 -19 4 -39 
-29 -43 -14 36 -7 -29 24 43 82 -24 -4 -43 
-29 -39 -9 34 -9 -24 24 43 82 -24 -4 -43 
-24 -29 -4 26 -9 -17 24 43 87 -19 -4 -48 
-24 -24 0 24 -12 -12 24 43 87 -19 -4 -48 
-24 -19 4 21 -14 -7 19 48 92 -19 0 -48 
-19 -9 9 14 -14 0 19 48 92 -19 0 -48 
-14 0 14 7 -14 7 19 53 92 -19 0 -48 
-14 0 14 7 -14 7 19 53 92 -19 0 -48 
-14 4 19 4 -17 12 19 58 97 -19 0 -43 
-14 4 19 4 -17 12 24 63 97 -19 0 -43 
-14 4 19 4 -17 12 29 68 102 -14 0 -39 
-14 9 24 2 -19 17 29 68 102 -14 0 -39 
-9 14 24 -2 -17 19 29 73 107 -9 0 -34 
-4 9 14 -2 -9 12 34 78 112 0 9 -29 
0 0 0 0 0 0 39 82 117 9 19 -24 
4 9 4 -7 0 7 39 82 117 9 19 -24 
14 24 9 -19 2 17 39 82 117 9 19 -24 
14 24 9 -19 2 17 39 82 117 9 14 -24 
14 29 14 -21 0 21 39 87 122 4 9 -24 
14 24 9 -19 2 17 39 87 126 4 9 -24 
14 19 4 -17 4 12 39 92 131 4 9 -24 
14 19 4 -17 4 12 39 92 131 4 14 -19 
14 24 9 -19 2 17 43 97 136 9 24 -14 
14 24 9 -19 2 17 43 97 141 9 24 -14 
14 29 14 -21 0 21 48 102 146 14 24 -14 
9 29 19 -19 -4 24 48 107 146 14 24 -14 
4 29 24 -17 -9 26 48 112 146 14 24 -14 
9 34 24 -21 -7 29 48 112 146 14 24 -14 
14 43 29 -29 -7 36 48 117 146 14 19 -14 
14 43 29 -29 -7 36 48 122 146 14 19 -14 
14 48 34 -31 -9 41 48 126 146 14 19 -9 
14 48 34 -31 -9 41 48 122 146 14 19 -9 
14 53 39 -34 -12 46 48 117 146 14 19 -9 
14 53 39 -34 -12 46 48 117 146 14 19 -9 
19 58 39 -39 -9 48 43 117 146 14 19 -14 
19 53 34 -36 -7 43 43 117 146 14 19 -14 
19 48 29 -34 -4 39 43 122 146 14 24 -14 
19 58 39 -39 -9 48 43 117 146 14 24 -14 
19 68 48 -43 -14 58 43 112 146 9 24 -9 
19 73 53 -46 -17 63 43 112 146 9 24 -9 
19 82 63 -51 -21 73 43 107 146 9 24 -9 
19 78 58 -48 -19 68 48 112 151 9 29 -9 
14 73 58 -43 -21 65 53 122 156 9 34 -9 
14 68 53 -41 -19 60 53 126 156 9 39 -9 
9 63 53 -36 -21 58 58 131 161 14 43 -9 
4 53 48 -29 -21 51 58 126 156 14 39 -4 
0 39 39 -19 -19 39 58 122 151 14 34 0 
0 53 53 -26 -26 53 53 117 141 14 29 -4 
-4 73 78 -34 -41 75 48 112 131 14 19 -14 
-9 78 87 -34 -48 82 39 107 131 9 14 -14 
-14 82 97 -34 -56 90 29 102 126 0 9 -14 
-19 92 112 -36 -65 102 24 97 122 -4 4 -14 
-29 102 131 -36 -80 117 14 92 117 -9 0 -19 
-29 82 112 -26 -70 97 24 92 117 -4 4 -19 
-24 58 82 -17 -53 70 34 92 117 0 14 -19 
-24 48 73 -12 -48 61 34 92 112 0 19 -19 
-24 39 63 -7 -43 51 34 92 107 4 24 -24 
-24 39 63 -7 -43 51 34 87 102 4 19 -24 
-29 39 68 -4 -48 53 39 82 97 0 14 -24 
-29 39 68 -4 -48 53 39 78 92 0 14 -24 
-34 39 73 -2 -53 56 34 73 87 0 9 -24 
-34 39 73 -2 -53 56 34 73 87 0 9 -24 
-34 34 68 0 -51 51 34 68 82 0 9 -24 
-34 34 68 0 -51 51 34 68 82 -4 9 -29 
-34 34 68 0 -51 51 34 68 78 -9 4 -39 
-34 34 68 0 -51 51 34 68 78 -9 4 -39 
-34 29 63 2 -48 46 34 68 78 -9 4 -39 
-34 29 63 2 -48 46 34 63 73 -9 4 -43 
-34 29 63 2 -48 46 34 53 68 -14 4 -48 
-34 34 68 0 -51 51 34 53 63 -14 0 -48 
-39 43 82 -2 -61 63 29 48 58 -14 -4 -48 
-39 39 78 0 -58 58 29 48 58 -14 -4 -48 
-39 34 73 2 -56 53 29 43 53 -19 -9 -48 
-39 34 73 2 -56 53 29 43 48 -19 -9 -48 
-39 29 68 4 -53 48 24 39 43 -24 -9 -48 
-39 29 68 4 -53 48 24 39 39 -24 -9 -48 
-43 29 73 7 -58 51 24 34 34 -24 -9 -48 
-43 24 68 9 -56 46 24 34 34 -24 -9 -48 
-43 19 63 12 -53 41 24 34 34 -29 -9 -48 
-39 19 58 9 -48 39 24 29 34 -29 -9 -48 
-34 19 53 7 -43 36 24 24 29 -29 -9 -53 
-34 4 39 14 -36 21 24 29 29 -29 -9 -53 
-39 -9 29 24 -34 9 29 34 34 -24 -9 -53 
-39 -9 29 24 -34 9 29 34 34 -24 -9 -53 
-34 -9 24 21 -29 7 34 34 39 -24 -9 -53 
-34 -14 19 24 -26 2 34 34 39 -24 -9 -53 
-39 -19 19 29 -29 0 29 34 34 -24 -9 -53 
-39 -24 14 31 -26 -4 29 29 34 -29 -14 -58 
-39 -29 9 34 -24 -9 29 19 29 -34 -19 -63 
-39 -4 34 21 -36 14 24 19 29 -39 -19 -63 
-39 19 58 9 -48 39 19 14 24 -43 -24 -68 
-39 19 58 9 -48 39 19 14 24 -43 -24 -68 
-39 14 53 12 -46 34 14 14 24 -48 -24 -68 
-43 14 58 14 -51 36 14 14 24 -48 -24 -68 
-48 9 58 19 -53 34 14 14 24 -48 -24 -68 
-48 4 53 21 -51 29 14 14 24 -48 -24 -68 
-48 0 48 24 -48 24 14 14 24 -53 -29 -68 
-48 -9 39 29 -43 14 14 19 24 -48 -29 -68 
-48 -24 24 36 -36 0 19 29 29 -43 -29 -63 
-48 -29 19 39 -34 -4 19 29 29 -43 -29 -63 
-48 -39 9 43 -29 -14 24 24 34 -39 -24 -63 
-53 -39 14 46 -34 -12 24 24 34 -39 -24 -63 
-58 -39 19 48 -39 -9 24 24 34 -39 -24 -63 
-53 -24 29 39 -41 2 24 24 34 -39 -24 -63 
-48 -4 43 26 -46 19 19 24 34 -34 -19 -63 
-48 -24 24 36 -36 0 24 29 39 -29 -14 -58 
-48 -43 4 46 -26 -19 34 39 43 -19 -4 -48 
-48 -63 -14 56 -17 -39 39 43 48 -9 0 -43 
-48 -87 -39 68 -4 -63 48 53 53 0 9 -34 
-48 -73 -24 61 -12 -48 48 43 53 -4 9 -34 
-48 -53 -4 51 -21 -29 48 34 48 -9 4 -39 
-48 -19 29 34 -39 4 39 24 39 -14 -4 -48 
-48 14 63 17 -56 39 29 14 24 -24 -19 -63 
-53 0 53 26 -53 26 29 14 24 -24 -19 -63 
-58 -19 39 39 -48 9 24 14 24 -24 -19 -63 
-63 -29 34 46 -48 2 24 14 24 -24 -19 -63 
-68 -39 29 53 -48 -4 24 14 24 -24 -19 -63 
-68 -34 34 51 -51 0 24 14 24 -24 -19 -63 
-68 -24 43 46 -56 9 19 14 24 -29 -19 -63 
-68 -14 53 41 -60 19 19 14 24 -29 -19 -63 
-63 -4 58 34 -61 26 14 14 24 -34 -19 -63 
-63 -4 58 34 -61 26 14 14 24 -34 -19 -63 
-58 -4 53 31 -56 24 14 14 24 -29 -19 -63 
-58 0 58 29 -58 29 14 14 24 -29 -19 -63 
-53 9 63 21 -58 36 9 9 24 -29 -19 -63 
-48 -9 39 29 -43 14 9 9 24 -29 -19 -58 
-43 -29 14 36 -29 -7 14 14 29 -24 -14 -53 
-43 -34 9 39 -26 -12 14 19 29 -24 -14 -48 
-43 -39 4 41 -24 -17 19 24 29 -19 -9 -43 
-43 -48 -4 46 -19 -26 24 29 39 -14 -4 -39 
-43 -63 -19 53 -12 -41 29 39 48 -4 0 -29 
-43 -63 -19 53 -12 -41 29 39 48 -4 0 -29 
-43 -58 -14 51 -14 -36 29 43 48 0 -4 -24 
-39 -39 0 39 -19 -19 24 34 43 -4 -4 -29 
-29 -14 14 21 -21 0 19 19 39 -9 -4 -39 
-34 -9 24 21 -29 7 14 19 34 -9 -4 -43 
-43 0 43 21 -43 21 9 14 29 -14 -4 -48 
-43 -4 39 24 -41 17 9 14 29 -14 -4 -43 
-48 -9 39 29 -43 14 14 14 29 -14 0 -39 
-48 -14 34 31 -41 9 14 14 29 -14 0 -39 
-48 -24 24 36 -36 0 14 14 29 -14 0 -39 
-48 -19 29 34 -39 4 9 9 29 -14 0 -39 
-48 -14 34 31 -41 9 4 4 29 -14 0 -43 
-48 -9 39 29 -43 14 4 4 29 -14 0 -43 
-48 0 48 24 -48 24 4 4 29 -14 0 -43 
-48 -4 43 26 -46 19 4 9 29 -14 0 -39 
-48 -9 39 29 -43 14 4 14 29 -14 0 -34 
-48 -9 39 29 -43 14 4 19 29 -14 0 -34 
-43 -9 34 26 -39 12 4 24 29 -14 0 -34 
-43 -9 34 26 -39 12 4 19 24 -14 -4 -39 
-39 -14 24 26 -31 4 0 9 14 -14 -9 -43 
-39 -4 34 21 -36 14 0 4 9 -14 -14 -48 
-34 9 43 12 -39 26 0 0 4 -14 -19 -53 
-34 0 34 17 -34 17 0 4 9 -14 -14 -48 
-34 -14 19 24 -26 2 4 9 14 -9 -9 -39 
-34 -14 19 24 -26 2 4 9 19 -9 -4 -34 
-34 -14 19 24 -26 2 4 9 24 -9 0 -29 
-34 -14 19 24 -26 2 4 9 24 -9 0 -29 
-29 -19 9 24 -19 -4 0 9 19 -9 0 -29 
-29 -19 9 24 -19 -4 0 9 19 -9 0 -29 
-24 -24 0 24 -12 -12 -4 4 19 -9 0 -29 
-29 -9 19 19 -24 4 -4 4 19 -9 -4 -29 
-34 4 39 14 -36 21 -4 4 14 -9 -9 -29 
-34 4 39 14 -36 21 -4 4 9 -9 -9 -29 
-34 9 43 12 -39 26 -4 9 4 -4 -14 -29 
-34 -9 24 21 -29 7 -4 14 14 0 -4 -24 
-34 -34 0 34 -17 -17 0 24 24 9 9 -14 
-34 -29 4 31 -19 -12 0 19 24 4 9 -19 
-34 -19 14 26 -24 -2 4 14 19 -4 4 -24 
-34 -19 14 26 -24 -2 4 14 19 -4 4 -24 
-39 -14 24 26 -31 4 4 14 19 -4 4 -24 
-39 -14 24 26 -31 4 4 14 19 -4 4 -24 
-39 -14 24 26 -31 4 4 14 19 0 9 -19 
-29 -19 9 24 -19 -4 4 14 19 0 9 -19 
-19 -24 -4 21 -7 -14 0 14 14 0 4 -24 
-24 -24 0 24 -12 -12 0 14 14 0 4 -29 
-34 -24 9 29 -21 -7 0 9 9 -4 0 -34 
-34 -24 9 29 -21 -7 0 9 9 -4 0 -34 
-39 -19 19 29 -29 0 0 9 9 -4 -4 -34 
-39 -9 29 24 -34 9 0 9 9 -4 -4 -34 
-39 0 39 19 -39 19 0 14 9 -4 -4 -34 
-39 0 39 19 -39 19 4 14 9 -4 0 -34 
-34 0 34 17 -34 17 14 14 14 -4 4 -34 
-34 0 34 17 -34 17 19 14 14 -4 4 -34 
-29 0 29 14 -29 14 29 14 14 -4 4 -29 
-29 0 29 14 -29 14 24 14 14 -4 4 -29 
-29 0 29 14 -29 14 19 14 14 -4 4 -29 
-29 -4 24 17 -26 9 19 14 14 -4 4 -29 
-29 -9 19 19 -24 4 14 14 19 -4 4 -29 
-29 -14 14 21 -21 0 14 14 19 -4 4 -29 
-29 -24 4 26 -17 -9 14 19 24 0 4 -24 
-29 -29 0 29 -14 -14 14 19 24 0 4 -24 
-34 -39 -4 36 -14 -21 14 24 29 4 4 -19 
-34 -39 -4 36 -14 -21 14 24 29 4 4 -19 
-34 -39 -4 36 -14 -21 14 24 29 4 0 -19 
-39 -39 0 39 -19 -19 14 24 29 4 0 -14 
-43 -34 9 39 -26 -12 14 24 29 4 0 -9 
-43 -34 9 39 -26 -12 14 24 24 4 0 -14 
-48 -29 19 39 -34 -4 19 24 19 0 0 -24 
-43 -19 24 31 -34 2 19 24 19 0 0 -24 
-34 -4 29 19 -31 12 19 24 14 -4 -4 -24 
-39 -14 24 26 -31 4 19 19 14 -9 -4 -24 
-43 -24 19 34 -31 -2 19 14 14 -14 -4 -24 
-43 -24 19 34 -31 -2 19 9 14 -19 -4 -24 
-48 -24 24 36 -36 0 19 4 14 -24 -4 -24 
-48 -34 14 41 -31 -9 19 9 14 -19 -4 -24 
-48 -48 0 48 -24 -24 24 19 19 -9 -4 -24 
-48 -58 -9 53 -19 -34 24 24 19 -4 -4 -24 
-48 -73 -24 61 -12 -48 29 29 24 4 -4 -24 
-48 -63 -14 56 -17 -39 29 29 24 4 -4 -24 
-53 -48 4 51 -29 -21 24 29 24 4 -4 -24 
-48 -34 14 41 -31 -9 24 29 24 4 -4 -24 
-39 -19 19 29 -29 0 24 29 24 4 -4 -24 
-39 -24 14 31 -26 -4 24 29 24 -4 -9 -29 
-39 -34 4 36 -21 -14 19 24 19 -14 -14 -39 
-39 -39 0 39 -19 -19 19 19 14 -19 -14 -39 
-43 -43 0 43 -21 -21 14 9 9 -24 -19 -43 
-43 -29 14 36 -29 -7 14 9 9 -24 -19 -43 
-43 -9 34 26 -39 12 14 9 9 -24 -19 -39 
-43 0 43 21 -43 21 14 14 14 -24 -14 -39 
-43 14 58 14 -51 36 19 19 19 -19 -9 -34 
-43 -9 34 26 -39 12 24 19 19 -19 -9 -34 
-39 -34 4 36 -21 -14 29 24 19 -14 -9 -34 
-39 -39 0 39 -19 -19 24 24 19 -14 -9 -34 
-39 -43 -4 41 -17 -24 19 24 19 -19 -9 -34 
-48 -39 9 43 -29 -14 19 19 19 -19 -9 -29 
-58 -29 29 43 -43 0 19 14 19 -19 -14 -24 
-68 -24 43 46 -56 9 19 14 19 -19 -14 -24 
-78 -19 58 48 -68 19 19 9 19 -19 -19 -19 
-68 -19 48 43 -58 14 19 14 19 -14 -14 -19 
-58 -19 39 39 -48 9 19 19 19 -9 -9 -19 
-48 -19 29 34 -39 4 19 24 19 -4 -4 -19 
-39 -19 19 29 -29 0 19 29 19 0 0 -19 
-39 -19 19 29 -29 0 19 29 19 0 0 -19 
-39 -19 19 29 -29 0 19 29 19 0 0 -19 
-39 -19 19 29 -29 0 19 29 19 0 0 -19 
-39 -19 19 29 -29 0 19 29 19 0 0 -19 
-39 -19 19 29 -29 0 19 29 19 0 0 -19 
-39 -19 19 29 -29 0 19 29 19 -4 -4 -24 
-39 -19 19 29 -29 0 19 29 19 -4 -4 -24 
-39 -19 19 29 -29 0 19 29 19 -9 -9 -29 
-39 -19 19 29 -29 0 19 29 19 -9 -9 -29 
-39 -19 19 29 -29 0 19 29 19 -9 -9 -29 
-39 -19 19 29 -29 0 19 29 19 -9 -9 -29 
-39 -19 19 29 -29 0 19 29 19 -9 -9 -29 
-39 -19 19 29 -29 0 19 29 19 -9 -9 -29 
-43 -19 24 31 -34 2 19 29 19 -14 -9 -29 
-43 -19 24 31 -34 2 19 29 19 -14 -9 -29 
-48 -19 29 34 -39 4 19 29 19 -19 -9 -29 
-48 -19 29 34 -39 4 19 24 19 -19 -9 -29 
-48 -19 29 34 -39 4 19 19 19 -19 -9 -29 
-48 -19 29 34 -39 4 19 14 19 -19 -9 -29 
-48 -19 29 34 -39 4 19 9 19 -19 -9 -29 
-48 -24 24 36 -36 0 19 14 19 -19 -9 -29 
-48 -29 19 39 -34 -4 24 19 19 -14 -9 -24 
-48 -34 14 41 -31 -9 24 24 19 -14 -9 -24 
-48 -39 9 43 -29 -14 29 29 19 -9 -9 -19 
-48 -39 9 43 -29 -14 29 29 19 -9 -9 -19 
-48 -39 9 43 -29 -14 29 29 19 -9 -9 -19 
-48 -39 9 43 -29 -14 29 29 19 -9 -9 -19 
-48 -39 9 43 -29 -14 29 29 19 -9 -9 -19 
-48 -39 9 43 -29 -14 29 29 19 -9 -9 -19 
-48 -43 4 46 -26 -19 29 24 19 -9 -9 -19 
-48 -43 4 46 -26 -19 29 24 19 -9 -9 -19 
-48 -48 0 48 -24 -24 29 19 19 -9 -9 -19 
-48 -48 0 48 -24 -24 29 19 19 -9 -9 -19 
-48 -48 0 48 -24 -24 29 19 19 -9 -9 -19 
-48 -48 0 48 -24 -24 29 19 19 -9 -9 -19 
-48 -48 0 48 -24 -24 29 19 19 -9 -9 -19 
-48 -48 0 48 -24 -24 29 19 19 -9 -9 -19 
-48 -48 0 48 -24 -24 29 19 19 -9 -4 -19 
-48 -48 0 48 -24 -24 29 19 19 -9 -4 -19 
-48 -48 0 48 -24 -24 29 19 19 -9 0 -19 
-48 -48 0 48 -24 -24 29 19 24 -9 0 -14 
-48 -48 0 48 -24 -24 29 19 29 -9 0 -9 
-48 -48 0 48 -24 -24 29 19 29 -9 0 -9 
-43 -43 0 43 -21 -21 24 19 29 -4 0 -9 
-43 -43 0 43 -21 -21 24 19 29 -4 0 -9 
-43 -43 0 43 -21 -21 24 19 29 -4 -4 -14 
-43 -39 4 41 -24 -17 24 19 24 -4 -4 -19 
-39 -29 9 34 -24 -9 19 19 19 -4 -9 -24 
-34 -29 4 31 -19 -12 19 19 19 -4 -9 -19 
-29 -29 0 29 -14 -14 19 24 24 0 -4 -14 
-29 -24 4 26 -17 -9 19 24 29 0 -4 -14 
-24 -14 9 19 -17 -2 24 29 34 4 -4 -9 
-19 -4 14 12 -17 4 24 34 34 4 -4 -9 
-14 4 19 4 -17 12 29 39 34 0 0 -14 
-4 14 19 -4 -12 17 29 39 34 0 0 -14 
4 24 19 -14 -7 21 29 43 34 0 0 -19 
4 39 34 -21 -14 36 29 43 39 0 0 -19 
4 58 53 -31 -24 56 24 43 43 4 4 -19 
4 68 63 -36 -29 65 24 43 43 9 9 -14 
0 78 78 -39 -39 78 24 43 48 14 14 -9 
0 63 63 -31 -31 63 29 48 58 24 19 0 
4 43 39 -24 -17 41 34 53 68 34 29 14 
4 43 39 -24 -17 41 34 58 73 43 39 24 
9 43 34 -26 -12 39 34 63 78 53 48 34 
14 53 39 -34 -12 46 34 63 82 58 53 39 
19 63 43 -41 -12 53 34 63 87 63 63 43 
24 63 39 -43 -7 51 34 63 92 68 63 48 
34 63 29 -48 2 46 34 63 102 73 63 53 
48 92 43 -70 2 68 24 63 97 73 63 48 
63 122 58 -92 2 90 9 63 92 73 63 43 
63 131 68 -97 -2 100 0 58 87 73 63 39 
68 141 73 -104 -2 107 -14 48 78 73 63 34 
73 136 63 -104 4 100 -14 53 82 78 68 43 
78 126 48 -102 14 87 -19 58 92 82 78 53 
87 126 39 -107 24 82 -24 58 97 87 82 58 
97 131 34 -114 31 82 -29 58 107 97 87 68 
97 126 29 -112 34 78 -34 48 97 92 87 68 
102 117 14 -109 43 65 -43 34 87 82 87 68 
92 107 14 -100 39 61 -48 24 68 73 78 63 
82 92 9 -87 36 51 -58 9 48 63 63 53 
82 97 14 -90 34 56 -68 4 39 53 53 48 
78 107 29 -92 24 68 -78 -4 29 39 43 39 
78 112 34 -95 21 73 -82 -9 19 34 39 39 
78 122 43 -100 17 82 -92 -14 9 24 29 34 
68 112 43 -90 12 78 -82 -9 19 24 39 34 
58 102 43 -80 7 73 -73 0 34 29 48 39 
53 82 29 -68 12 56 -68 0 39 29 48 39 
48 58 9 -53 19 34 -63 0 48 34 48 39 
48 48 0 -48 24 24 -58 4 48 34 48 39 
48 34 -14 -41 31 9 -53 9 48 34 43 39 
53 34 -19 -43 36 7 -63 4 48 29 39 34 
63 34 -29 -48 46 2 -73 -4 43 24 29 29 
68 34 -34 -51 51 0 -68 -4 43 24 29 29 
78 34 -43 -56 61 -4 -63 -4 43 24 34 34 
82 24 -58 -53 70 -17 -63 0 43 24 34 34 
92 9 -82 -51 87 -36 -58 4 43 24 39 34 
92 14 -78 -53 85 -31 -63 4 39 19 34 34 
87 24 -63 -56 75 -19 -68 4 29 9 24 29 
68 34 -34 -51 51 0 -63 4 24 4 24 24 
48 43 -4 -46 26 19 -58 4 19 0 19 14 
14 14 0 -14 7 7 -39 9 29 4 19 14 
-19 -19 0 19 -9 -9 -19 19 39 9 24 19 
-34 -39 -4 36 -14 -21 -9 19 43 19 29 19 
-53 -63 -9 58 -21 -36 4 19 53 29 39 24 
-43 -58 -14 51 -14 -36 4 14 43 19 29 14 
-34 -48 -14 41 -9 -31 4 4 34 9 14 4 
-34 -48 -14 41 -9 -31 9 4 29 4 14 0 
-29 -48 -19 39 -4 -34 14 4 24 0 9 -9 
-43 -48 -4 46 -19 -26 14 4 24 -9 0 -14 
-58 -53 4 56 -31 -24 14 0 19 -19 -14 -19 
-63 -53 9 58 -36 -21 14 0 19 -19 -14 -19 
-68 -53 14 61 -41 -19 14 0 14 -24 -19 -24 
-78 -73 4 75 -41 -34 14 4 14 -24 -19 -24 
-92 -92 0 92 -46 -46 19 14 9 -24 -19 -24 
-97 -82 14 90 -56 -34 19 9 9 -24 -19 -24 
-102 -73 29 87 -65 -21 19 0 4 -24 -19 -29 
-97 -78 19 87 -58 -29 19 0 4 -24 -19 -29 
-87 -82 4 85 -46 -39 19 0 4 -29 -19 -29 
-82 -87 -4 85 -39 -46 19 0 4 -29 -19 -29 
-78 -97 -19 87 -29 -58 19 0 4 -29 -19 -29 
-78 -87 -9 82 -34 -48 19 0 4 -29 -19 -29 
-78 -78 0 78 -39 -39 19 0 4 -29 -19 -29 
-78 -58 19 68 -48 -19 19 0 0 -34 -19 -34 
-78 -34 43 56 -61 4 19 -4 -4 -39 -24 -39 
-78 -34 43 56 -61 4 19 -4 -4 -43 -29 -43 
-78 -39 39 58 -58 0 19 0 -4 -48 -39 -48 
-78 -53 24 65 -51 -14 24 0 -4 -53 -43 -48 
-82 -68 14 75 -48 -26 34 4 -9 -58 -48 -53 
-97 -68 29 82 -63 -19 34 -4 -24 -58 -48 -53 
-112 -68 43 90 -78 -12 34 -19 -39 -58 -53 -58 
-122 -63 58 92 -90 -2 34 -34 -63 -68 -63 -68 
-136 -53 82 95 -109 14 34 -53 -92 -82 -78 -78 
-151 -68 82 109 -117 7 43 -63 -112 -73 -73 -78 
-170 -82 87 126 -129 2 53 -78 -131 -63 -68 -73 
-165 -78 87 122 -126 4 48 -102 -146 -34 -43 -48 
-161 -73 87 117 -124 7 39 -131 -165 0 -14 -24 
-141 -87 53 114 -97 -17 48 -146 -204 -9 -14 -24 
-117 -107 9 112 -63 -48 58 -165 -248 -19 -14 -19 
-92 -63 29 78 -61 -17 19 -234 -326 4 14 9 
-63 -14 48 39 -56 17 -24 -307 -409 29 43 43 
-34 131 165 -48 -100 148 -107 -400 -497 68 102 107 
-4 283 287 -139 -146 285 -190 -497 -585 107 165 170 
29 390 361 -209 -165 375 -278 -605 -707 112 204 224 
63 502 439 -283 -187 470 -370 -712 -829 122 244 283 
63 561 497 -312 -217 529 -429 -824 -985 97 258 326 
63 624 561 -344 -248 592 -488 -941 -1141 68 278 375 
107 595 488 -351 -190 541 -522 -966 -1205 -4 253 380 
156 561 405 -358 -124 483 -556 -995 -1273 -82 229 390 
224 395 170 -309 26 283 -512 -912 -1244 -268 92 307 
292 224 -68 -258 180 78 -463 -829 -1215 -453 -43 224 
351 14 -336 -183 344 -161 -351 -644 -1073 -614 -185 126 
414 -195 -610 -109 512 -402 -239 -453 -927 -780 -326 29 
409 -307 -717 -51 563 -512 -141 -356 -829 -805 -356 4 
400 -419 -819 9 610 -619 -39 -258 -727 -829 -385 -19 
400 -405 -805 2 602 -605 -48 -239 -649 -766 -351 4 
395 -385 -780 -4 588 -583 -58 -219 -570 -697 -312 34 
400 -292 -692 -53 546 -492 -87 -204 -492 -600 -244 68 
409 -195 -605 -107 507 -400 -122 -185 -414 -497 -175 102 
370 -175 -546 -97 458 -361 -117 -151 -346 -424 -141 102 
326 -156 -483 -85 405 -319 -107 -112 -278 -351 -102 102 
244 -131 -375 -56 309 -253 -107 -122 -253 -297 -92 73 
156 -102 -258 -26 207 -180 -112 -136 -224 -244 -82 39 
117 -107 -224 -4 170 -165 -82 -107 -180 -204 -73 19 
73 -117 -190 21 131 -153 -53 -73 -131 -165 -58 0 
39 -112 -151 36 95 -131 -24 -48 -92 -136 -48 0 
0 -107 -107 53 53 -107 9 -19 -53 -107 -34 -4 
-19 -97 -78 58 29 -87 24 -14 -39 -87 -29 -9 
-43 -82 -39 63 -2 -60 39 -4 -24 -68 -24 -14 
-43 -87 -43 65 0 -65 43 4 -19 -63 -24 -14 
-48 -92 -43 70 -2 -68 48 14 -14 -58 -24 -19 
-53 -97 -43 75 -4 -70 48 19 -9 -58 -24 -19 
-58 -107 -48 82 -4 -78 53 29 -4 -53 -19 -19 
-58 -92 -34 75 -12 -63 53 29 0 -53 -19 -19 
-58 -78 -19 68 -19 -48 53 29 4 -48 -14 -19 
-58 -68 -9 63 -24 -39 53 29 4 -48 -14 -19 
-58 -58 0 58 -29 -29 53 29 4 -48 -14 -19 
-63 -58 4 61 -34 -26 53 29 9 -43 -14 -19 
-68 -53 14 61 -41 -19 48 34 19 -34 -14 -19 
-68 -53 14 61 -41 -19 48 34 19 -34 -14 -19 
-68 -58 9 63 -39 -24 43 34 19 -34 -14 -24 
-63 -78 -14 70 -24 -46 43 34 19 -29 -14 -24 
-58 -97 -39 78 -9 -68 43 39 19 -24 -14 -24 
-58 -107 -48 82 -4 -78 43 39 19 -19 -14 -24 
-58 -117 -58 87 0 -87 43 39 19 -9 -14 -24 
-58 -97 -39 78 -9 -68 43 34 19 -14 -14 -29 
-53 -73 -19 63 -17 -46 43 29 19 -19 -19 -34 
-58 -68 -9 63 -24 -39 43 29 19 -24 -19 -39 
-63 -58 4 61 -34 -26 39 24 24 -29 -24 -43 
-63 -63 0 63 -31 -31 39 24 24 -29 -24 -39 
-63 -68 -4 65 -29 -36 39 24 29 -24 -19 -34 
-63 -58 4 61 -34 -26 39 24 29 -24 -19 -29 
-63 -48 14 56 -39 -17 39 29 29 -24 -19 -24 
-63 -48 14 56 -39 -17 39 29 29 -24 -19 -24 
-68 -48 19 58 -43 -14 39 24 29 -24 -14 -29 
-68 -43 24 56 -46 -9 39 24 29 -24 -14 -29 
-68 -39 29 53 -48 -4 34 19 29 -24 -14 -29 
-68 -48 19 58 -43 -14 34 19 29 -24 -14 -29 
-63 -58 4 61 -34 -26 34 19 29 -19 -14 -29 
-58 -63 -4 61 -26 -34 34 19 29 -14 -14 -24 
-53 -73 -19 63 -17 -46 39 19 29 -9 -9 -19 
-63 -87 -24 75 -19 -56 39 19 29 -9 -4 -14 
-73 -107 -34 90 -19 -70 39 24 34 -9 0 -9 
-78 -122 -43 100 -17 -82 39 29 34 -9 4 -4 
-82 -141 -58 112 -12 -100 39 34 34 -9 9 0 
-73 -122 -48 97 -12 -85 34 29 34 -9 4 0 
-58 -97 -39 78 -9 -68 24 24 34 -14 0 -4 
-53 -82 -29 68 -12 -56 29 24 34 -14 -4 -4 
-43 -63 -19 53 -12 -41 39 19 34 -14 -9 -4 
-34 -29 4 31 -19 -12 29 19 34 -14 -14 -9 
-24 9 34 7 -29 21 19 19 34 -14 -19 -19 
-24 0 24 12 -24 12 24 19 34 -14 -14 -14 
-24 -9 14 17 -19 2 34 19 39 -9 -9 -4 
-34 -9 24 21 -29 7 34 19 39 -9 -9 -9 
-43 -9 34 26 -39 12 29 19 39 -9 -14 -14 
-43 -24 19 34 -31 -2 29 19 39 -9 -9 -14 
-48 -39 9 43 -29 -14 34 24 39 -9 -4 -14 
-48 -39 9 43 -29 -14 34 24 39 -9 -4 -14 
-48 -39 9 43 -29 -14 34 24 39 -9 -4 -9 
-48 -39 9 43 -29 -14 34 24 39 -9 -4 -9 
-48 -34 14 41 -31 -9 29 24 39 -14 -4 -9 
-43 -29 14 36 -29 -7 29 24 39 -14 -4 -9 
-34 -19 14 26 -24 -2 24 19 39 -14 -9 -14 
-29 -14 14 21 -21 0 24 19 39 -9 -9 -14 
-19 -9 9 14 -14 0 19 19 39 -4 -9 -14 
-24 -14 9 19 -17 -2 19 19 43 -4 -4 -9 
-34 -24 9 29 -21 -7 24 24 48 0 4 -4 
-39 -19 19 29 -29 0 24 24 48 0 0 -9 
-43 -14 29 29 -36 7 24 24 48 0 -4 -14 
-43 -9 34 26 -39 12 24 24 48 0 0 -14 
-43 -4 39 24 -41 17 29 24 53 0 4 -9 
-43 -19 24 31 -34 2 29 24 53 0 9 -9 
-39 -39 0 39 -19 -19 34 29 58 4 14 -4 
-24 -34 -9 29 -7 -21 29 29 58 4 14 -4 
-9 -24 -14 17 2 -19 24 29 58 9 14 -4 
-9 -24 -14 17 2 -19 24 29 58 9 14 -4 
-9 -19 -9 14 0 -14 19 29 58 9 14 -4 
-14 -24 -9 19 -2 -17 19 29 58 9 14 -4 
-19 -34 -14 26 -2 -24 14 29 58 9 9 -4 
-19 -43 -24 31 2 -34 14 29 58 9 9 -4 
-24 -58 -34 41 4 -46 9 29 63 9 4 -4 
-24 -53 -29 39 2 -41 9 29 63 9 4 -4 
-24 -48 -24 36 0 -36 9 29 63 9 4 0 
-24 -48 -24 36 0 -36 9 29 63 9 4 0 
-24 -43 -19 34 -2 -31 9 24 63 9 0 4 
-24 -43 -19 34 -2 -31 9 24 63 9 0 4 
-19 -39 -19 29 0 -29 9 24 63 9 0 4 
-19 -39 -19 29 0 -29 9 24 63 9 0 4 
-19 -39 -19 29 0 -29 9 29 63 14 0 4 
-9 -29 -19 19 4 -24 14 29 63 14 0 9 
0 -14 -14 7 7 -14 19 29 68 19 4 14 
4 -14 -19 4 12 -17 24 34 73 19 4 14 
14 -14 -29 0 21 -21 34 43 78 19 9 14 
9 -14 -24 2 17 -19 24 39 73 19 9 14 
0 -14 -14 7 7 -14 14 34 63 19 9 14 
-4 -19 -14 12 4 -17 19 34 68 19 9 14 
-9 -29 -19 19 4 -24 29 34 73 19 9 14 
-9 -29 -19 19 4 -24 24 34 73 19 9 14 
-9 -29 -19 19 4 -24 14 34 68 19 9 9 
-9 -14 -4 12 -2 -9 9 29 63 19 9 4 
-4 4 9 0 -7 7 4 24 58 19 4 0 
-4 4 9 0 -7 7 4 24 58 19 4 0 
-4 0 4 2 -4 2 4 24 58 19 4 0 
-4 0 4 2 -4 2 4 24 58 19 4 0 
-9 -4 4 7 -7 0 4 29 63 19 4 0 
-9 -14 -4 12 -2 -9 9 34 63 24 9 4 
-9 -29 -19 19 4 -24 14 43 68 29 19 9 
-4 -29 -24 17 9 -26 14 43 68 29 19 9 
0 -29 -29 14 14 -29 14 43 73 34 19 9 
0 -24 -24 12 12 -24 14 39 73 34 19 4 
0 -19 -19 9 9 -19 9 34 73 34 14 0 
0 -14 -14 7 7 -14 4 34 73 34 14 0 
-4 -4 0 4 -2 -2 0 29 73 34 14 0 
-4 -4 0 4 -2 -2 0 29 73 29 14 0 
-4 -4 0 4 -2 -2 -4 29 73 19 14 0 
-4 -9 -4 7 0 -7 -4 29 73 19 14 0 
0 -14 -14 7 7 -14 -4 34 73 24 14 4 
0 -9 -9 4 4 -9 -4 34 73 24 14 4 
4 -4 -9 0 7 -7 0 29 78 29 14 4 
4 -4 -9 0 7 -7 0 29 78 29 14 4 
4 0 -4 -2 4 -2 0 29 82 29 19 9 
9 -4 -14 -2 12 -9 0 29 82 29 19 9 
14 -9 -24 -2 19 -17 4 29 82 34 24 14 
14 -19 -34 2 24 -26 4 29 82 34 24 19 
14 -34 -48 9 31 -41 9 29 87 39 29 24 
19 -14 -34 -2 26 -24 9 34 87 39 29 24 
24 4 -19 -14 21 -7 14 43 92 43 29 24 
29 29 0 -29 14 14 14 48 92 43 29 24 
39 53 14 -46 12 34 9 53 97 48 29 24 
34 34 0 -34 17 17 14 58 102 58 39 29 
29 9 -19 -19 24 -4 19 63 107 68 48 34 
29 9 -19 -19 24 -4 19 63 107 68 48 34 
24 4 -19 -14 21 -7 19 63 107 68 48 34 
24 24 0 -24 12 12 14 58 102 63 39 29 
24 43 19 -34 2 31 9 53 97 53 29 19 
24 53 29 -39 -2 41 4 48 97 48 24 14 
24 68 43 -46 -9 56 0 43 92 43 19 4 
24 68 43 -46 -9 56 0 43 92 43 24 14 
24 63 39 -43 -7 51 4 48 97 48 34 24 
24 63 39 -43 -7 51 4 48 102 48 34 29 
24 58 34 -41 -4 46 9 53 107 53 34 34 
24 58 34 -41 -4 46 9 58 107 53 34 34 
24 53 29 -39 -2 41 9 63 112 58 39 34 
34 58 24 -46 4 41 9 63 112 58 39 34 
43 63 19 -53 12 41 9 68 117 63 39 34 
39 63 24 -51 7 43 14 78 117 63 39 34 
34 68 34 -51 0 51 19 87 117 63 39 39 
29 68 39 -48 -4 53 24 87 117 63 39 39 
24 73 48 -48 -12 61 29 87 117 63 39 39 
24 87 63 -56 -19 75 19 78 112 58 34 39 
29 102 73 -65 -21 87 9 68 107 53 29 34 
29 107 78 -68 -24 92 4 63 102 48 29 34 
29 117 87 -73 -29 102 -4 53 97 43 24 34 
29 112 82 -70 -26 97 0 58 102 43 29 39 
29 102 73 -65 -21 87 4 63 107 48 34 43 
29 92 63 -61 -17 78 9 68 112 53 39 43 
29 82 53 -56 -12 68 14 78 117 58 43 48 
34 92 58 -63 -12 75 14 78 117 58 43 48 
39 102 63 -70 -12 82 19 78 117 53 43 48 
43 112 68 -78 -12 90 19 78 117 53 43 48 
48 122 73 -85 -12 97 19 73 112 53 43 48 
43 107 63 -75 -9 85 19 73 112 53 43 53 
34 87 53 -61 -9 70 24 78 117 58 43 58 
29 97 68 -63 -19 82 24 78 117 58 43 53 
24 112 87 -68 -31 100 19 82 112 63 39 43 
24 97 73 -61 -24 85 19 78 112 63 39 43 
24 82 58 -53 -17 70 14 73 107 58 39 43 
24 73 48 -48 -12 61 14 68 102 58 39 43 
19 63 43 -41 -12 53 14 63 97 58 39 39 
19 63 43 -41 -12 53 19 63 97 58 34 39 
14 58 43 -36 -14 51 24 63 97 53 29 39 
9 68 58 -39 -24 63 19 63 92 48 24 39 
4 78 73 -41 -34 75 14 63 87 43 14 34 
4 78 73 -41 -34 75 14 58 82 43 14 34 
4 78 73 -41 -34 75 14 53 78 39 19 34 
4 78 73 -41 -34 75 9 48 73 39 24 34 
4 78 73 -41 -34 75 4 43 68 39 29 34 
4 68 63 -36 -29 65 4 43 68 39 29 34 
4 58 53 -31 -24 56 4 39 63 39 29 39 
4 53 48 -29 -21 51 4 39 63 34 29 34 
4 43 39 -24 -17 41 4 39 58 29 24 29 
4 48 43 -26 -19 46 4 39 58 29 24 29 
4 53 48 -29 -21 51 4 39 58 29 24 29 
4 58 53 -31 -24 56 4 34 53 29 24 24 
4 68 63 -36 -29 65 4 24 48 24 24 19 
4 68 63 -36 -29 65 0 24 43 24 19 14 
0 68 68 -34 -34 68 -4 19 34 24 9 9 
0 58 58 -29 -29 58 -4 19 29 24 4 4 
0 43 43 -21 -21 43 -9 14 24 19 0 0 
0 39 39 -19 -19 39 -9 14 24 19 0 0 
0 29 29 -14 -14 29 -9 14 24 14 0 0 
0 24 24 -12 -12 24 -9 14 24 14 0 0 
-4 19 24 -7 -14 21 -4 14 24 14 0 0 
-9 14 24 -2 -17 19 -4 14 24 9 0 0 
-14 9 24 2 -19 17 -4 14 24 4 0 0 
-14 9 24 2 -19 17 -4 9 24 4 0 0 
-14 9 24 2 -19 17 -4 4 19 0 0 -4 
-14 9 24 2 -19 17 -4 9 19 0 0 -4 
-14 4 19 4 -17 12 -4 14 19 4 0 -4 
-9 14 24 -2 -17 19 -4 14 19 4 0 -4 
-4 29 34 -12 -19 31 -4 14 19 4 0 -4 
-4 24 29 -9 -17 26 -4 14 19 4 0 -4 
-4 19 24 -7 -14 21 -4 19 14 9 0 0 
-4 14 19 -4 -12 17 -4 14 14 9 -4 0 
0 9 9 -4 -4 9 0 9 9 4 -9 -4 
0 14 14 -7 -7 14 0 9 9 4 -9 -4 
0 24 24 -12 -12 24 0 9 9 4 -9 -4 
0 4 4 -2 -2 4 0 9 9 4 -9 -4 
0 -14 -14 7 7 -14 4 14 14 9 -4 0 
-4 -9 -4 7 0 -7 4 9 14 9 -4 0 
-14 0 14 7 -14 7 4 4 9 9 -4 -4 
-14 4 19 4 -17 12 4 0 9 9 -4 -4 
-19 9 29 4 -24 19 4 -4 4 4 -9 -9 
-19 9 29 4 -24 19 4 0 4 4 -9 -9 
-19 9 29 4 -24 19 0 4 4 4 -14 -9 
-19 14 34 2 -26 24 0 0 4 4 -14 -9 
-19 19 39 0 -29 29 -4 -4 4 0 -14 -14 
-29 0 29 14 -29 14 -4 -4 4 0 -14 -9 
-43 -24 19 34 -31 -2 -4 -4 9 0 -14 -4 
-43 -29 14 36 -29 -7 -4 -4 9 0 -14 0 
-48 -34 14 41 -31 -9 -9 -4 14 4 -9 4 
-43 -24 19 34 -31 -2 -9 -4 14 4 -9 0 
-39 -14 24 26 -31 4 -9 -4 14 4 -9 -9 
-34 -9 24 21 -29 7 -9 -4 14 4 -9 -14 
-29 0 29 14 -29 14 -9 -4 14 9 -9 -24 
-29 -4 24 17 -26 9 -4 -4 19 9 -4 -14 
-29 -14 14 21 -21 0 4 0 29 14 4 0 
-29 -4 24 17 -26 9 4 0 29 14 4 0 
-29 4 34 12 -31 19 0 4 24 14 0 4 
-29 0 29 14 -29 14 0 4 24 14 0 4 
-24 -9 14 17 -19 2 0 4 24 14 0 4 
-24 -9 14 17 -19 2 0 4 24 14 0 4 
-19 -9 9 14 -14 0 4 4 24 14 0 4 
-19 -4 14 12 -17 4 4 4 24 14 0 4 
-19 0 19 9 -19 9 0 0 19 9 -4 0 
-19 4 24 7 -21 14 0 0 19 9 -4 0 
-14 14 29 0 -21 21 -4 -4 14 4 -9 -4 
-14 14 29 0 -21 21 -4 -4 14 4 -9 -4 
-14 14 29 0 -21 21 -4 -4 14 9 -9 -4 
-14 19 34 -2 -24 26 -4 -4 14 9 -9 -4 
-14 29 43 -7 -29 36 -9 -9 14 9 -9 -4 
-14 14 29 0 -21 21 -9 -9 14 9 -9 -4 
-14 0 14 7 -14 7 -9 -4 19 14 -4 -4 
-19 0 19 9 -19 9 -9 0 19 14 -4 -4 
-24 0 24 12 -24 12 -9 4 19 19 0 -4 
-19 -4 14 12 -17 4 -4 4 19 19 0 -4 
-14 -9 4 12 -9 -2 0 4 24 24 4 0 
-9 0 9 4 -9 4 0 0 19 24 0 0 
-4 9 14 -2 -9 12 0 -4 9 19 -4 -4 
0 19 19 -9 -9 19 -4 -9 9 19 -4 -4 
9 29 19 -19 -4 24 -9 -14 9 19 -4 -9 
4 24 19 -14 -7 21 -14 -9 9 19 -4 -9 
-4 19 24 -7 -14 21 -19 -4 9 24 -4 -9 
-4 14 19 -4 -12 17 -19 -4 9 24 -4 -4 
-9 9 19 0 -14 14 -14 -4 9 24 0 0 
-9 4 14 2 -12 9 -14 -4 9 24 0 0 
-9 -4 4 7 -7 0 -14 -4 9 24 0 0 
-9 0 9 4 -9 4 -19 -9 9 24 0 0 
-9 4 14 2 -12 9 -24 -14 9 24 0 -4 
-9 9 19 0 -14 14 -24 -14 9 24 0 -4 
-9 19 29 -4 -19 24 -24 -14 9 24 0 -4 
-9 9 19 0 -14 14 -24 -14 9 24 0 0 
-9 0 9 4 -9 4 -24 -14 9 24 0 4 
-9 -4 4 7 -7 0 -24 -14 9 24 0 4 
-4 -9 -4 7 0 -7 -24 -14 9 24 0 4 
-9 -9 0 9 -4 -4 -29 -19 4 19 -4 4 
-14 -9 4 12 -9 -2 -34 -29 -4 14 -9 0 
-19 4 24 7 -21 14 -34 -34 -9 9 -14 0 
-24 19 43 2 -34 31 -39 -39 -14 4 -19 -4 
-24 9 34 7 -29 21 -39 -34 -14 4 -19 -4 
-24 -4 19 14 -21 7 -43 -29 -14 4 -19 -4 
-24 -4 19 14 -21 7 -48 -29 -14 4 -19 -4 
-24 -4 19 14 -21 7 -53 -29 -14 0 -19 -9 
-19 0 19 9 -19 9 -48 -24 -14 4 -14 -4 
-9 9 19 0 -14 14 -43 -19 -9 9 -9 0 
-4 14 19 -4 -12 17 -39 -19 -4 14 -4 4 
4 24 19 -14 -7 21 -34 -14 0 19 0 9 
4 24 19 -14 -7 21 -29 -14 0 19 0 9 
4 29 24 -17 -9 26 -24 -14 4 19 0 9 
9 19 9 -14 0 14 -19 -14 4 19 0 9 
14 9 -4 -12 9 2 -14 -9 4 24 4 9 
9 0 -9 -4 9 -4 -14 -4 4 29 9 9 
4 -14 -19 4 12 -17 -14 0 9 34 14 14 
0 0 0 0 0 0 -14 -4 0 24 4 4 
-4 19 24 -7 -14 21 -14 -14 -9 14 -4 -4 
-9 19 29 -4 -19 24 -14 -14 -9 14 -4 -4 
-19 24 43 -2 -31 34 -14 -14 -9 14 -4 -4 
-24 24 48 0 -36 36 -14 -14 -9 14 -4 -4 
-29 24 53 2 -41 39 -14 -14 -9 19 0 0 
-14 19 34 -2 -24 26 -14 -14 -9 19 0 0 
0 14 14 -7 -7 14 -14 -9 -4 19 0 0 
0 14 14 -7 -7 14 -14 -9 -4 19 0 0 
-4 14 19 -4 -12 17 -9 -9 0 14 0 -4 
-4 9 14 -2 -9 12 -9 -9 0 14 0 -4 
0 4 4 -2 -2 4 -9 -9 0 14 -4 -4 
4 4 0 -4 2 2 -9 -9 0 14 -4 -4 
9 9 0 -9 4 4 -9 -4 0 14 -4 -4 
4 9 4 -7 0 7 -9 -4 0 14 0 -4 
0 9 9 -4 -4 9 -4 -4 4 14 4 -4 
-4 9 14 -2 -9 12 -4 -4 4 14 4 -4 
-9 9 19 0 -14 14 0 -4 4 14 4 0 
-9 4 14 2 -12 9 0 0 4 14 4 0 
-9 0 9 4 -9 4 0 4 4 14 4 4 
-9 -9 0 9 -4 -4 0 9 4 14 4 4 
-9 -19 -9 14 0 -14 4 14 9 14 4 9 
-9 -14 -4 12 -2 -9 0 9 9 14 4 9 
-9 -9 0 9 -4 -4 -9 0 4 9 0 9 
-9 -4 4 7 -7 0 -14 -4 4 9 0 9 
-14 0 14 7 -14 7 -24 -14 0 4 -4 9 
-14 0 14 7 -14 7 -24 -14 0 4 -4 9 
-14 0 14 7 -14 7 -24 -14 0 4 -9 4 
-19 0 19 9 -19 9 -24 -14 0 4 -9 4 
-24 4 29 9 -26 17 -24 -14 0 4 -9 9 
-24 4 29 9 -26 17 -19 -14 0 4 -9 4 
-24 0 24 12 -24 12 -14 -14 -4 4 -4 -4 
-14 4 19 4 -17 12 -14 -14 -4 4 -4 -4 
-4 14 19 -4 -12 17 -9 -14 -4 4 -4 -4 
-4 4 9 0 -7 7 -9 -14 -4 4 -4 -4 
-4 -4 0 4 -2 -2 -9 -14 -4 4 -4 -4 
-4 -4 0 4 -2 -2 -9 -14 -4 4 -4 -4 
0 -4 -4 2 2 -4 -9 -14 -4 4 -4 -4 
0 0 0 0 0 0 -9 -14 -4 4 -9 -4 
0 4 4 -2 -2 4 -9 -9 -4 4 -14 -4 
0 9 9 -4 -4 9 -9 -9 -4 4 -19 -4 
0 14 14 -7 -7 14 -9 -9 -4 4 -24 -4 
-14 9 24 2 -19 17 -9 -9 -4 4 -24 -4 
-29 4 34 12 -31 19 -14 -9 -4 4 -24 -4 
-34 4 39 14 -36 21 -14 -9 -4 4 -24 -4 
-39 0 39 19 -39 19 -14 -9 -4 4 -24 -4 
-29 0 29 14 -29 14 -14 -9 -4 4 -24 -4 
-14 0 14 7 -14 7 -9 -9 0 0 -19 -9 
-4 0 4 2 -4 2 -9 -14 0 0 -14 -9 
4 4 0 -4 2 2 -4 -19 0 4 -9 -4 
4 4 0 -4 2 2 -4 -19 0 4 -9 -4 
4 4 0 -4 2 2 0 -19 0 4 -9 0 
4 0 -4 -2 4 -2 4 -14 4 4 -4 0 
4 -4 -9 0 7 -7 9 -9 9 9 0 4 
4 -14 -19 4 12 -17 14 -9 9 9 0 4 
9 -24 -34 7 21 -29 19 -4 9 14 0 4 
9 -14 -24 2 17 -19 14 -4 9 14 0 4 
9 -4 -14 -2 12 -9 9 -4 9 9 0 4 
0 -9 -9 4 4 -9 9 -4 9 9 0 4 
-9 -14 -4 12 -2 -9 4 -4 4 9 -4 0 
-19 -19 0 19 -9 -9 4 -4 4 9 -4 0 
-29 -29 0 29 -14 -14 0 -9 0 9 -9 0 
-24 -19 4 21 -14 -7 0 -9 0 9 -9 0 
-14 -4 9 9 -12 2 -4 -9 0 4 -14 0 
-9 4 14 2 -12 9 -4 -9 0 4 -14 0 
0 19 19 -9 -9 19 -9 -9 0 0 -19 0 
-4 19 24 -7 -14 21 -9 -9 0 0 -19 0 
-9 19 29 -4 -19 24 -9 -9 0 0 -19 0 
-14 19 34 -2 -24 26 -9 -9 0 0 -19 0 
-19 19 39 0 -29 29 -9 -9 0 0 -19 0 
-19 9 29 4 -24 19 -4 -4 4 4 -14 4 
-19 -4 14 12 -17 4 4 4 9 14 -4 9 
-19 -14 4 17 -12 -4 9 9 14 19 0 14 
-19 -29 -9 24 -4 -19 19 19 19 29 9 19 
-19 -19 0 19 -9 -9 14 14 14 24 4 14 
-19 -9 9 14 -14 0 4 4 9 19 -4 4 
-19 0 19 9 -19 9 0 0 4 14 -9 0 
-19 9 29 4 -24 19 -9 -9 0 9 -19 -9 
-19 9 29 4 -24 19 -9 -9 0 9 -19 -9 
-14 9 24 2 -19 17 -9 -9 0 9 -19 -9 
-14 9 24 2 -19 17 -9 -9 0 9 -19 -9 
-9 9 19 0 -14 14 -9 -9 0 9 -19 -9 
-9 9 19 0 -14 14 -9 -9 0 9 -19 -9 
-9 4 14 2 -12 9 -9 -9 0 9 -19 -4 
-9 4 14 2 -12 9 -9 -9 0 9 -19 -4 
-9 0 9 4 -9 4 -9 -9 0 9 -19 0 
-14 0 14 7 -14 7 -9 -9 0 9 -19 0 
-19 -4 14 12 -17 4 -9 -9 0 9 -19 0 
-24 -4 19 14 -21 7 -9 -9 0 9 -19 0 
-29 -9 19 19 -24 4 -9 -9 0 9 -19 0 
-29 -9 19 19 -24 4 -9 -9 0 9 -19 0 
-29 -9 19 19 -24 4 -9 -9 0 9 -19 0 
-29 -9 19 19 -24 4 -9 -9 0 9 -19 0 
-29 -9 19 19 -24 4 -9 -9 0 9 -19 0 
-29 -9 19 19 -24 4 -9 -9 0 9 -19 0 
-24 -9 14 17 -19 2 -9 -9 0 9 -19 0 
-24 -9 14 17 -19 2 -9 -9 0 9 -19 0 
-19 -9 9 14 -14 0 -9 -9 0 9 -19 0 
-19 -9 9 14 -14 0 -9 -9 0 9 -19 0 
-19 -9 9 14 -14 0 -9 -9 0 4 -24 0 
-19 -9 9 14 -14 0 -9 -9 0 4 -24 0 
-19 -9 9 14 -14 0 -9 -9 0 0 -29 0 
-14 0 14 7 -14 7 -9 -9 0 0 -29 0 
-9 9 19 0 -14 14 -9 -9 0 0 -29 0 
-4 19 24 -7 -14 21 -9 -9 0 0 -29 0 
0 29 29 -14 -14 29 -9 -9 0 0 -29 0 
0 19 19 -9 -9 19 -9 -9 0 0 -29 0 
0 4 4 -2 -2 4 -9 -9 0 4 -24 0 
0 -4 -4 2 2 -4 -9 -9 0 4 -24 0 
0 -19 -19 9 9 -19 -9 -9 0 9 -19 0 
0 -19 -19 9 9 -19 -9 -9 0 9 -19 0 
0 -19 -19 9 9 -19 -9 -9 0 9 -19 0 
0 -19 -19 9 9 -19 -9 -9 0 9 -19 0 
0 -19 -19 9 9 -19 -9 -9 0 9 -19 0 
-4 -19 -14 12 4 -17 -9 -9 0 9 -19 0 
-9 -19 -9 14 0 -14 -4 -4 4 14 -14 4 
-9 -19 -9 14 0 -14 -4 -4 4 14 -14 4 
-14 -14 0 14 -7 -7 0 0 4 19 -9 4 
-14 -14 0 14 -7 -7 0 0 4 19 -9 4 
-19 -14 4 17 -12 -4 0 0 9 24 -9 4 
-19 -14 4 17 -12 -4 0 0 9 24 -9 4 
-14 -9 4 12 -9 -2 0 0 9 24 -9 4 
-14 -4 9 9 -12 2 0 0 9 24 -9 4 
-14 0 14 7 -14 7 0 0 9 19 -9 0 
-14 0 14 7 -14 7 0 0 9 19 -9 0 
-9 0 9 4 -9 4 0 4 14 19 -4 4 
-9 4 14 2 -12 9 0 4 19 19 -4 4 
-4 14 19 -4 -12 17 4 9 24 24 -4 9 
0 14 14 -7 -7 14 4 14 24 24 0 9 
4 19 14 -12 -4 17 9 19 29 29 4 14 
14 19 4 -17 4 12 9 19 29 29 4 14 
29 24 -4 -26 17 9 9 24 29 29 4 19 
34 39 4 -36 14 21 9 24 29 29 4 19 
39 58 19 -48 9 39 4 24 34 24 4 19 
39 68 29 -53 4 48 4 24 34 29 4 19 
39 82 43 -61 -2 63 4 24 34 34 9 24 
39 78 39 -58 0 58 4 24 34 39 9 24 
43 73 29 -58 7 51 4 24 39 43 9 29 
43 82 39 -63 2 60 0 24 39 48 14 29 
48 92 43 -70 2 68 -4 24 39 53 19 34 
53 102 48 -78 2 75 -4 29 43 58 24 39 
58 112 53 -85 2 82 -4 34 48 63 34 43 
63 102 39 -82 12 70 -4 39 58 68 39 48 
73 87 14 -80 29 51 0 48 73 78 43 58 
82 92 9 -87 36 51 -4 48 78 78 48 58 
97 102 4 -100 46 53 -9 53 82 82 53 63 
97 107 9 -102 43 58 -14 48 82 82 53 63 
97 117 19 -107 39 68 -24 39 78 82 53 63 
102 122 19 -112 41 70 -29 39 78 82 58 68 
107 131 24 -119 41 78 -39 39 78 87 63 73 
122 146 24 -134 48 85 -48 39 82 97 63 78 
136 165 29 -151 53 97 -58 39 87 107 68 87 
141 165 24 -153 58 95 -63 34 82 107 68 92 
146 165 19 -156 63 92 -73 24 78 102 68 97 
126 146 19 -136 53 82 -82 4 53 87 53 87 
102 126 24 -114 39 75 -97 -19 24 68 34 73 
92 117 24 -104 34 70 -102 -29 19 58 29 63 
78 107 29 -92 24 68 -107 -43 9 43 19 53 
82 112 29 -97 26 70 -107 -43 9 43 19 53 
87 117 29 -102 29 73 -102 -43 9 43 19 53 
87 117 29 -102 29 73 -97 -39 14 43 24 53 
87 122 34 -104 26 78 -92 -29 19 39 29 58 
87 97 9 -92 39 53 -92 -29 19 39 24 58 
87 73 -14 -80 51 29 -87 -29 19 34 19 58 
87 58 -29 -73 58 14 -82 -24 19 34 19 58 
87 43 -43 -65 65 0 -73 -19 19 29 14 58 
97 53 -43 -75 70 4 -82 -24 19 24 9 53 
107 68 -39 -87 73 14 -92 -29 14 14 4 48 
107 73 -34 -90 70 19 -87 -29 14 14 4 48 
112 82 -29 -97 70 26 -82 -24 14 14 9 48 
112 73 -39 -92 75 17 -82 -19 14 14 9 48 
112 58 -53 -85 82 2 -78 -14 14 14 9 43 
107 53 -53 -80 80 0 -78 -14 14 14 4 43 
97 43 -53 -70 75 -4 -78 -14 9 9 -4 39 
73 39 -34 -56 53 2 -73 -14 9 9 -4 34 
43 29 -14 -36 29 7 -63 -14 9 9 -9 24 
19 14 -4 -17 12 4 -53 -9 9 9 -9 24 
-4 0 4 2 -4 2 -39 0 14 9 -9 24 
-9 -4 4 7 -7 0 -34 0 14 14 -4 24 
-14 -9 4 12 -9 -2 -24 0 19 19 0 24 
-14 -9 4 12 -9 -2 -24 -4 14 9 -9 14 
-14 -14 0 14 -7 -7 -24 -14 4 0 -24 4 
-19 -19 0 19 -9 -9 -14 -14 0 -4 -24 0 
-24 -29 -4 26 -9 -17 0 -14 -4 -9 -29 -9 
-29 -29 0 29 -14 -14 4 -14 -4 -14 -39 -9 
-39 -34 4 36 -21 -14 14 -19 -9 -24 -48 -14 
-39 -29 9 34 -24 -9 9 -19 -14 -24 -48 -14 
-39 -24 14 31 -26 -4 0 -24 -19 -29 -48 -19 
-43 -39 4 41 -24 -17 -4 -19 -19 -29 -48 -19 
-53 -53 0 53 -26 -26 -9 -14 -24 -34 -48 -24 
-53 -43 9 48 -31 -17 -9 -19 -24 -34 -48 -24 
-58 -34 24 46 -41 -4 -9 -29 -24 -34 -48 -29 
-58 -34 24 46 -41 -4 -9 -29 -24 -34 -48 -29 
-58 -29 29 43 -43 0 -9 -29 -24 -39 -48 -29 
-58 -39 19 48 -39 -9 -9 -29 -24 -39 -48 -29 
-58 -48 9 53 -34 -19 -9 -29 -24 -34 -48 -29 
-58 -58 0 58 -29 -29 -9 -29 -24 -34 -48 -29 
-58 -68 -9 63 -24 -39 -9 -29 -24 -29 -48 -29 
-58 -48 9 53 -34 -19 -9 -29 -24 -34 -48 -29 
-58 -29 29 43 -43 0 -9 -29 -29 -39 -53 -34 
-63 -29 34 46 -48 2 -9 -29 -29 -39 -53 -34 
-68 -24 43 46 -56 9 -9 -24 -24 -39 -58 -34 
-73 -39 34 56 -53 -2 -4 -24 -24 -39 -58 -34 
-82 -58 24 70 -53 -17 4 -19 -24 -43 -63 -34 
-97 -58 39 78 -68 -9 4 -29 -39 -43 -68 -34 
-112 -58 53 85 -82 -2 4 -39 -58 -48 -73 -39 
-122 -53 68 87 -95 7 4 -53 -87 -63 -87 -58 
-136 -43 92 90 -114 24 4 -73 -122 -78 -107 -78 
-141 -43 97 92 -119 26 9 -92 -146 -73 -107 -82 
-146 -43 102 95 -124 29 19 -112 -170 -63 -102 -87 
-136 -29 107 82 -121 39 19 -136 -180 -34 -73 -63 
-122 -14 107 68 -114 46 19 -161 -195 0 -43 -39 
-107 -14 92 61 -100 39 24 -180 -239 -9 -39 -29 
-87 -19 68 53 -78 24 29 -200 -283 -19 -29 -14 
-63 24 87 19 -75 56 -14 -273 -366 9 4 29 
-39 68 107 -14 -73 87 -63 -351 -448 39 43 73 
-19 170 190 -75 -104 180 -126 -439 -536 68 92 126 
4 278 273 -141 -134 275 -195 -527 -624 97 141 185 
34 395 361 -214 -163 378 -287 -653 -771 102 180 244 
63 512 448 -287 -192 480 -385 -780 -917 107 224 307 
73 561 487 -317 -207 524 -434 -878 -1049 63 224 336 
87 610 522 -348 -217 566 -488 -976 -1185 19 224 370 
156 585 429 -370 -136 507 -531 -1000 -1254 -78 180 361 
224 556 331 -390 -53 444 -575 -1029 -1327 -180 131 346 
287 434 146 -361 70 290 -541 -966 -1312 -326 29 283 
351 312 -39 -331 195 136 -502 -902 -1298 -473 -78 219 
400 43 -356 -222 378 -156 -341 -658 -1107 -634 -224 126 
448 -224 -673 -112 561 -448 -180 -409 -917 -795 -370 29 
444 -341 -785 -51 614 -563 -87 -302 -814 -824 -405 4 
439 -458 -897 9 668 -678 9 -190 -707 -858 -444 -24 
439 -380 -819 -29 629 -600 -39 -209 -644 -771 -390 9 
444 -302 -746 -70 595 -524 -92 -234 -580 -678 -331 43 
439 -219 -658 -109 549 -439 -122 -229 -512 -585 -273 68 
429 -131 -561 -148 495 -346 -156 -224 -439 -492 -209 92 
375 -131 -507 -122 441 -319 -146 -190 -380 -424 -180 82 
317 -126 -444 -95 380 -285 -136 -151 -317 -356 -146 73 
244 -102 -346 -70 295 -224 -136 -161 -292 -302 -136 48 
170 -73 -244 -48 207 -158 -141 -175 -268 -248 -122 19 
126 -82 -209 -21 168 -146 -102 -136 -214 -204 -107 4 
78 -97 -175 9 126 -136 -58 -97 -161 -161 -92 -9 
39 -102 -141 31 90 -122 -29 -63 -117 -131 -82 -9 
0 -107 -107 53 53 -107 4 -29 -73 -102 -68 -14 
-9 -97 -87 53 39 -92 9 -24 -63 -92 -68 -19 
-24 -82 -58 53 17 -70 19 -14 -48 -78 -63 -24 
-24 -78 -53 51 14 -65 19 -9 -43 -73 -63 -24 
-24 -68 -43 46 9 -56 24 -4 -34 -68 -63 -29 
-29 -63 -34 46 2 -48 24 -4 -29 -58 -58 -29 
-34 -58 -24 46 -4 -41 24 0 -24 -43 -48 -24 
-34 -48 -14 41 -9 -31 24 0 -19 -34 -43 -24 
-39 -39 0 39 -19 -19 24 0 -14 -19 -34 -19 
-39 -43 -4 41 -17 -24 24 0 -14 -24 -34 -19 
-39 -53 -14 46 -12 -34 24 0 -14 -29 -34 -19 
-43 -63 -19 53 -12 -41 24 0 -9 -29 -34 -19 
-48 -73 -24 61 -12 -48 24 4 0 -24 -34 -14 
-48 -78 -29 63 -9 -53 24 4 0 -24 -34 -14 
-48 -87 -39 68 -4 -63 24 4 0 -24 -34 -14 
-48 -87 -39 68 -4 -63 24 4 0 -24 -34 -14 
-48 -87 -39 68 -4 -63 24 9 0 -24 -34 -14 
-53 -73 -19 63 -17 -46 24 9 0 -24 -34 -14 
-58 -53 4 56 -31 -24 24 9 0 -19 -39 -14 
-53 -39 14 46 -34 -12 24 9 0 -19 -39 -14 
-43 -19 24 31 -34 2 24 4 0 -19 -43 -14 
-43 -29 14 36 -29 -7 24 4 0 -19 -43 -14 
-43 -39 4 41 -24 -17 19 4 4 -24 -43 -14 
-43 -48 -4 46 -19 -26 19 4 4 -24 -43 -14 
-43 -58 -14 51 -14 -36 19 4 9 -24 -39 -14 
-43 -48 -4 46 -19 -26 19 4 9 -24 -39 -14 
-43 -39 4 41 -24 -17 24 9 9 -24 -39 -19 
-43 -43 0 43 -21 -21 24 9 9 -24 -39 -24 
-48 -48 0 48 -24 -24 29 9 9 -24 -39 -29 
-48 -53 -4 51 -21 -29 29 9 9 -24 -39 -29 
-43 -58 -14 51 -14 -36 24 14 14 -19 -43 -29 
-39 -63 -24 51 -7 -43 24 14 14 -19 -43 -29 
-34 -68 -34 51 0 -51 24 19 19 -14 -43 -29 
-29 -63 -34 46 2 -48 24 19 19 -14 -43 -24 
-24 -53 -29 39 2 -41 29 19 19 -9 -39 -14 
-29 -48 -19 39 -4 -34 29 19 19 -9 -39 -14 
-34 -43 -9 39 -12 -26 29 14 24 -9 -39 -9 
-34 -43 -9 39 -12 -26 29 14 24 -9 -39 -9 
-34 -43 -9 39 -12 -26 24 9 19 -9 -39 -9 
-29 -43 -14 36 -7 -29 19 9 19 -9 -39 -9 
-24 -43 -19 34 -2 -31 9 4 14 -9 -39 -4 
-24 -48 -24 36 0 -36 19 4 14 -9 -39 0 
-29 -58 -29 43 0 -43 29 9 14 -4 -34 4 
-29 -39 -9 34 -9 -24 19 9 14 -4 -34 0 
-24 -19 4 21 -14 -7 9 9 14 -4 -29 -9 
-29 -43 -14 36 -7 -29 19 9 19 -4 -19 -4 
-34 -68 -34 51 0 -51 29 14 24 0 -9 0 
-34 -53 -19 43 -7 -36 29 14 24 0 -14 -4 
-34 -39 -4 36 -14 -21 24 14 29 0 -24 -14 
-24 -39 -14 31 -4 -26 24 14 29 0 -24 -14 
-9 -39 -29 24 9 -34 24 14 29 0 -24 -14 
-4 -39 -34 21 14 -36 24 14 29 0 -24 -14 
0 -39 -39 19 19 -39 24 14 29 0 -24 -9 
-4 -29 -24 17 9 -26 24 14 29 0 -24 -9 
-14 -14 0 14 -7 -7 19 14 29 -4 -24 -9 
-19 -4 14 12 -17 4 19 14 29 -4 -24 -9 
-29 9 39 9 -34 24 19 14 29 -4 -24 -9 
-24 4 29 9 -26 17 19 14 29 0 -24 -9 
-14 -4 9 9 -12 2 19 19 29 4 -19 -4 
-9 -24 -14 17 2 -19 19 19 34 4 -14 0 
0 -43 -43 21 21 -43 24 24 39 9 -4 4 
0 -34 -34 17 17 -34 24 24 39 4 -14 0 
-4 -24 -19 14 7 -21 19 19 34 0 -24 -9 
-9 -4 4 7 -7 0 19 14 34 -4 -29 -9 
-14 19 34 -2 -24 26 14 9 29 -14 -34 -14 
-14 0 14 7 -14 7 14 9 29 -14 -34 -14 
-9 -24 -14 17 2 -19 14 9 29 -14 -34 -14 
-4 -29 -24 17 9 -26 9 9 29 -14 -34 -14 
4 -34 -39 14 21 -36 4 9 29 -9 -34 -14 
-4 -34 -29 19 12 -31 4 9 29 -9 -34 -14 
-19 -29 -9 24 -4 -19 0 9 24 -9 -34 -14 
-24 -29 -4 26 -9 -17 0 9 24 -9 -34 -14 
-29 -29 0 29 -14 -14 0 9 19 -9 -34 -14 
-19 -19 0 19 -9 -9 0 9 19 -9 -34 -14 
-4 -4 0 4 -2 -2 0 9 24 -9 -34 -14 
4 14 9 -9 -2 12 0 9 24 -9 -34 -14 
14 39 24 -26 -4 31 0 9 24 -9 -34 -14 
14 29 14 -21 0 21 4 9 29 -9 -34 -14 
14 14 0 -14 7 7 9 9 34 -4 -29 -14 
14 0 -14 -7 14 -7 14 9 39 -4 -24 -14 
19 -14 -34 -2 26 -24 19 14 43 0 -19 -14 
19 -14 -34 -2 26 -24 14 14 43 0 -19 -14 
14 -19 -34 2 24 -26 9 19 43 4 -19 -14 
14 -19 -34 2 24 -26 9 19 43 4 -19 -9 
14 -19 -34 2 24 -26 4 19 48 9 -14 -4 
9 -29 -39 9 24 -34 4 24 48 9 -14 -4 
4 -43 -48 19 26 -46 4 29 53 4 -14 -4 
0 -39 -39 19 19 -39 -9 24 43 4 -14 -4 
-9 -29 -19 19 4 -24 -24 14 34 0 -19 -4 
-4 -29 -24 17 9 -26 -14 14 39 0 -19 -4 
0 -29 -29 14 14 -29 0 14 43 0 -19 -9 
4 -29 -34 12 19 -31 0 14 43 0 -19 -9 
14 -29 -43 7 29 -36 0 14 43 0 -19 -14 
19 -4 -24 -7 21 -14 0 14 43 0 -24 -14 
24 24 0 -24 12 12 -4 9 39 -4 -29 -19 
24 34 9 -29 7 21 -4 9 39 -4 -29 -19 
24 43 19 -34 2 31 -4 14 39 -9 -34 -19 
19 39 19 -29 0 29 -4 14 43 -9 -34 -19 
14 29 14 -21 0 21 -4 19 53 -9 -34 -19 
14 9 -4 -12 9 2 0 24 58 -4 -29 -14 
9 -9 -19 0 14 -14 4 34 68 0 -19 -9 
14 -9 -24 -2 19 -17 4 34 68 0 -19 -9 
19 -9 -29 -4 24 -19 4 34 63 4 -14 -4 
19 -9 -29 -4 24 -19 4 34 58 4 -14 -4 
19 -4 -24 -7 21 -14 0 29 53 4 -14 -9 
9 -4 -14 -2 12 -9 -4 29 53 4 -14 -9 
0 0 0 0 0 0 -9 29 53 4 -14 -9 
-4 0 4 2 -4 2 -9 29 53 0 -14 -9 
-14 -4 9 9 -12 2 -9 29 53 -4 -14 -9 
-4 -9 -4 7 0 -7 -9 29 53 0 -14 -9 
4 -14 -19 4 12 -17 -4 34 58 9 -9 -4 
14 -9 -24 -2 19 -17 -4 34 63 14 -9 -4 
24 -4 -29 -9 26 -17 0 34 68 19 -4 -4 
24 0 -24 -12 24 -12 0 34 68 19 -4 -4 
24 9 -14 -17 19 -2 0 39 73 19 0 0 
29 24 -4 -26 17 9 0 39 73 19 0 0 
34 39 4 -36 14 21 0 39 73 19 0 0 
34 34 0 -34 17 17 0 39 73 14 0 0 
29 24 -4 -26 17 9 -4 39 78 9 -4 0 
24 14 -9 -19 17 2 -4 39 78 4 -4 0 
19 4 -14 -12 17 -4 -9 43 82 0 -9 -4 
19 19 0 -19 9 9 -14 43 82 0 -14 -4 
19 39 19 -29 0 29 -19 43 87 0 -19 -4 
19 43 24 -31 -2 34 -14 48 92 9 -14 0 
24 48 24 -36 0 36 -9 53 97 19 -9 4 
29 53 24 -41 2 39 -4 53 97 24 -4 9 
34 58 24 -46 4 41 0 53 102 29 0 14 
34 58 24 -46 4 41 4 53 102 29 0 19 
34 58 24 -46 4 41 9 58 107 34 0 24 
34 53 19 -43 7 36 9 58 107 29 0 19 
39 43 4 -41 17 24 9 63 112 24 0 14 
39 34 -4 -36 21 14 9 63 112 24 4 14 
43 24 -19 -34 31 2 14 68 117 19 14 14 
43 29 -14 -36 29 7 14 68 122 19 14 14 
48 39 -9 -43 29 14 19 73 126 24 14 14 
48 48 0 -48 24 24 19 73 126 24 14 14 
43 58 14 -51 14 36 19 78 126 24 14 14 
48 68 19 -58 14 43 19 78 126 24 14 14 
53 82 29 -68 12 56 19 78 126 24 9 14 
53 87 34 -70 9 61 19 82 126 24 9 14 
53 97 43 -75 4 70 19 87 126 24 9 19 
53 92 39 -73 7 65 24 87 126 24 9 19 
48 82 34 -65 7 58 29 87 126 29 9 24 
48 82 34 -65 7 58 34 92 126 29 9 24 
48 78 29 -63 9 53 39 97 126 34 9 24 
48 78 29 -63 9 53 39 97 126 34 9 24 
48 78 29 -63 9 53 34 102 126 34 14 24 
48 78 29 -63 9 53 29 102 126 34 14 24 
48 82 34 -65 7 58 24 102 126 29 14 29 
48 82 34 -65 7 58 24 102 126 34 19 29 
48 82 34 -65 7 58 24 107 131 39 29 29 
48 82 34 -65 7 58 24 107 131 39 34 29 
43 82 39 -63 2 60 29 107 136 43 43 29 
39 87 48 -63 -4 68 29 107 136 39 39 29 
34 92 58 -63 -12 75 24 102 131 34 34 29 
34 87 53 -61 -9 70 24 102 131 29 29 34 
29 78 48 -53 -9 63 19 102 131 24 24 39 
29 97 68 -63 -19 82 14 102 126 24 24 34 
34 122 87 -78 -26 104 9 102 122 24 19 24 
34 122 87 -78 -26 104 9 97 122 24 19 24 
34 122 87 -78 -26 104 4 92 117 19 19 24 
34 117 82 -75 -24 100 4 87 112 19 19 24 
39 107 68 -73 -14 87 9 82 107 19 19 19 
39 87 48 -63 -4 68 14 82 107 19 19 19 
43 68 24 -56 9 46 24 82 107 19 24 19 
34 68 34 -51 0 51 19 82 102 14 24 14 
24 68 43 -46 -9 56 14 78 92 9 24 4 
19 68 48 -43 -14 58 14 73 87 4 19 0 
9 68 58 -39 -24 63 14 63 78 0 14 -4 
9 68 58 -39 -24 63 9 58 73 0 14 0 
4 68 63 -36 -29 65 4 53 68 0 9 4 
4 68 63 -36 -29 65 4 53 68 0 9 9 
4 63 58 -34 -26 61 4 48 63 0 9 14 
4 63 58 -34 -26 61 4 48 63 0 9 9 
4 68 63 -36 -29 65 0 48 58 -4 4 0 
4 68 63 -36 -29 65 0 48 58 -4 4 0 
4 68 63 -36 -29 65 -4 48 58 0 4 0 
4 68 63 -36 -29 65 -4 43 53 0 9 0 
9 68 58 -39 -24 63 -4 34 48 -4 14 -4 
9 68 58 -39 -24 63 -4 34 43 -4 14 -4 
9 68 58 -39 -24 63 -9 29 39 -4 14 0 
9 48 39 -29 -14 43 -9 29 39 -4 14 0 
9 29 19 -19 -4 24 -4 24 34 -4 9 0 
9 19 9 -14 0 14 -4 24 34 -4 9 0 
9 9 0 -9 4 4 0 24 34 -4 9 0 
0 14 14 -7 -7 14 0 24 34 -4 9 0 
-9 24 34 -7 -21 29 4 24 34 -4 4 -4 
-14 24 39 -4 -26 31 4 24 34 -4 4 -4 
-24 29 53 -2 -39 41 4 24 34 -9 0 -9 
-14 19 34 -2 -24 26 4 19 34 -9 0 -9 
-4 4 9 0 -7 7 4 14 29 -9 0 -14 
-4 -14 -9 9 2 -12 4 19 29 -9 0 -14 
-4 -39 -34 21 14 -36 4 24 29 -4 0 -14 
-4 -19 -14 12 4 -17 4 24 29 -4 0 -14 
0 0 0 0 0 0 4 19 24 -9 0 -14 
0 14 14 -7 -7 14 4 19 19 -9 0 -14 
0 29 29 -14 -14 29 0 14 14 -14 0 -14 
0 34 34 -17 -17 34 0 9 14 -19 -4 -19 
0 39 39 -19 -19 39 -4 0 9 -29 -9 -29 
0 53 53 -26 -26 53 -4 0 9 -29 -9 -29 
0 73 73 -36 -36 73 -9 0 9 -34 -9 -34 
4 53 48 -29 -21 51 -9 4 14 -34 -9 -34 
9 29 19 -19 -4 24 -4 9 19 -29 -4 -29 
9 19 9 -14 0 14 -4 9 19 -29 -4 -29 
9 9 0 -9 4 4 -4 14 24 -29 -4 -29 
4 0 -4 -2 4 -2 0 14 24 -29 -4 -29 
-4 -14 -9 9 2 -12 4 14 24 -29 -9 -29 
-9 -19 -9 14 0 -14 9 19 24 -29 -9 -29 
-19 -29 -9 24 -4 -19 14 24 24 -24 -14 -29 
-19 -19 0 19 -9 -9 14 19 24 -24 -14 -29 
-19 -9 9 14 -14 0 14 14 19 -29 -14 -34 
-24 -14 9 19 -17 -2 14 14 19 -29 -14 -34 
-29 -19 9 24 -19 -4 14 14 14 -29 -14 -34 
-24 -9 14 17 -19 2 9 14 14 -29 -9 -34 
-19 0 19 9 -19 9 4 14 14 -24 -4 -34 
-19 4 24 7 -21 14 4 14 14 -24 -4 -34 
-19 9 29 4 -24 19 0 14 14 -24 0 -34 
-19 9 29 4 -24 19 0 14 14 -24 0 -34 
-19 9 29 4 -24 19 0 14 19 -19 0 -34 
-19 4 24 7 -21 14 4 14 24 -19 4 -29 
-19 -4 14 12 -17 4 9 14 34 -19 9 -24 
-19 0 19 9 -19 9 4 14 29 -24 4 -29 
-19 9 29 4 -24 19 0 14 24 -29 -4 -34 
-19 0 19 9 -19 9 0 14 24 -29 -4 -34 
-19 -9 9 14 -14 0 0 14 24 -34 -9 -34 
-19 -9 9 14 -14 0 0 14 24 -34 -9 -34 
-19 -9 9 14 -14 0 4 9 24 -34 -9 -34 
-19 -9 9 14 -14 0 4 9 24 -34 -9 -34 
-19 -4 14 12 -17 4 4 4 24 -34 -9 -34 
-19 -4 14 12 -17 4 4 4 24 -34 -9 -34 
-19 0 19 9 -19 9 4 4 24 -29 -9 -34 
-19 0 19 9 -19 9 4 4 24 -24 -9 -34 
-24 -4 19 14 -21 7 4 4 24 -19 -9 -34 
-24 0 24 12 -24 12 4 4 24 -19 -9 -34 
-24 9 34 7 -29 21 0 0 29 -14 -4 -29 
-24 -4 19 14 -21 7 0 0 29 -14 -4 -29 
-24 -19 4 21 -14 -7 0 0 34 -9 0 -24 
-19 -19 0 19 -9 -9 0 0 34 -9 0 -24 
-9 -19 -9 14 0 -14 4 4 29 -9 4 -24 
0 -19 -19 9 9 -19 4 4 29 -9 4 -24 
14 -14 -29 0 21 -21 9 4 29 -9 9 -24 
9 0 -9 -4 9 -4 4 4 24 -14 4 -29 
4 14 9 -9 -2 12 0 0 14 -24 -4 -34 
4 19 14 -12 -4 17 0 0 14 -24 -4 -34 
9 29 19 -19 -4 24 0 -4 19 -29 -4 -39 
4 24 19 -14 -7 21 0 0 19 -29 -4 -39 
-4 19 24 -7 -14 21 -4 4 19 -24 -4 -39 
-4 14 19 -4 -12 17 -4 4 19 -24 -4 -34 
-9 9 19 0 -14 14 -4 4 19 -24 0 -29 
-9 4 14 2 -12 9 -4 4 19 -24 0 -29 
-9 0 9 4 -9 4 -4 0 14 -24 -4 -34 
-9 4 14 2 -12 9 -9 -4 14 -24 -4 -39 
-9 14 24 -2 -17 19 -14 -14 9 -24 -9 -43 
-9 19 29 -4 -19 24 -14 -14 9 -24 -9 -43 
-14 29 43 -7 -29 36 -14 -14 9 -24 -9 -43 
-14 24 39 -4 -26 31 -14 -14 9 -24 -9 -39 
-19 19 39 0 -29 29 -14 -14 9 -24 -9 -34 
-19 14 34 2 -26 24 -14 -14 9 -24 -9 -34 
-14 9 24 2 -19 17 -14 -9 14 -24 -4 -34 
-14 0 14 7 -14 7 -14 -9 14 -24 -4 -34 
-14 -9 4 12 -9 -2 -19 -9 14 -24 0 -34 
-14 0 14 7 -14 7 -14 -9 14 -19 0 -29 
-14 9 24 2 -19 17 -9 -4 19 -14 4 -24 
-14 0 14 7 -14 7 -4 0 19 -9 4 -19 
-14 -14 0 14 -7 -7 4 9 24 -4 9 -14 
-14 -24 -9 19 -2 -17 4 9 24 -4 9 -14 
-19 -34 -14 26 -2 -24 4 9 24 -9 9 -19 
-19 -34 -14 26 -2 -24 4 9 24 -9 9 -19 
-24 -39 -14 31 -4 -26 4 9 19 -9 9 -19 
-24 -14 9 19 -17 -2 0 4 19 -14 9 -19 
-24 9 34 7 -29 21 -4 -4 14 -19 4 -24 
-29 24 53 2 -41 39 -9 -9 14 -24 4 -24 
-34 43 78 -4 -56 61 -14 -14 14 -29 0 -29 
-34 34 68 0 -51 51 -14 -14 14 -29 0 -29 
-29 19 48 4 -39 34 -14 -9 14 -24 4 -29 
-29 9 39 9 -34 24 -14 -4 19 -19 9 -24 
-24 -4 19 14 -21 7 -14 0 24 -14 14 -19 
-19 4 24 7 -21 14 -14 0 19 -19 4 -24 
-14 19 34 -2 -24 26 -9 0 9 -29 -4 -34 
-9 19 29 -4 -19 24 -9 4 9 -29 -4 -34 
-4 14 19 -4 -12 17 -4 14 9 -24 -4 -34 
-4 14 19 -4 -12 17 -4 9 9 -24 -4 -34 
-9 14 24 -2 -17 19 -4 4 9 -19 0 -39 
-4 9 14 -2 -9 12 -4 4 9 -19 0 -43 
0 4 4 -2 -2 4 -4 0 9 -19 0 -48 
-14 -4 9 9 -12 2 0 0 9 -19 4 -43 
-29 -14 14 21 -21 0 4 0 9 -24 9 -39 
-39 -24 14 31 -26 -4 4 0 9 -24 9 -34 
-48 -34 14 41 -31 -9 9 0 9 -24 14 -24 
-43 -14 29 29 -36 7 9 0 9 -24 9 -24 
-34 4 39 14 -36 21 9 4 9 -24 4 -24 
-29 14 43 7 -36 29 9 4 9 -24 4 -24 
-19 29 48 -4 -34 39 9 4 14 -24 4 -24 
-19 29 48 -4 -34 39 4 4 14 -24 4 -24 
-19 29 48 -4 -34 39 0 0 9 -29 0 -29 
-19 29 48 -4 -34 39 -4 0 9 -29 0 -34 
-19 29 48 -4 -34 39 -9 -4 4 -34 -4 -39 
-19 24 43 -2 -31 34 -9 -4 4 -34 -4 -39 
-19 14 34 2 -26 24 -4 -4 9 -34 -4 -39 
-19 9 29 4 -24 19 -4 -4 9 -34 -4 -39 
-19 0 19 9 -19 9 -4 -4 9 -34 -4 -39 
-19 -4 14 12 -17 4 -4 0 9 -34 0 -39 
-24 -14 9 19 -17 -2 0 4 14 -29 4 -39 
-24 -14 9 19 -17 -2 0 9 14 -29 4 -39 
-24 -19 4 21 -14 -7 4 14 19 -24 9 -39 
-29 -19 9 24 -19 -4 4 14 19 -24 9 -34 
-34 -14 19 24 -26 2 4 14 19 -19 9 -24 
-34 -14 19 24 -26 2 4 14 19 -19 9 -29 
-34 -14 19 24 -26 2 9 14 14 -14 9 -34 
-24 -4 19 14 -21 7 9 14 14 -14 4 -34 
-14 4 19 4 -17 12 9 14 14 -14 0 -34 
-19 -4 14 12 -17 4 9 14 14 -14 0 -34 
-24 -14 9 19 -17 -2 9 14 14 -14 -4 -34 
-29 -14 14 21 -21 0 9 14 14 -14 -4 -34 
-39 -9 29 24 -34 9 9 14 14 -14 -4 -34 
-43 -9 34 26 -39 12 9 14 14 -14 -4 -34 
-48 -4 43 26 -46 19 9 19 14 -14 -4 -34 
-43 -4 39 24 -41 17 9 19 14 -14 -4 -34 
-34 -4 29 19 -31 12 14 19 14 -9 0 -29 
-34 -4 29 19 -31 12 14 19 14 -9 0 -29 
-29 -4 24 17 -26 9 14 19 14 -4 4 -24 
-24 -4 19 14 -21 7 14 19 14 -4 4 -24 
-19 0 19 9 -19 9 14 19 14 -4 4 -24 
-19 0 19 9 -19 9 14 19 14 -9 4 -29 
-19 0 19 9 -19 9 14 19 14 -14 0 -34 
-24 9 34 7 -29 21 9 14 9 -19 -4 -43 
-29 19 48 4 -39 34 0 4 0 -29 -14 -53 
-29 24 53 2 -41 39 -4 4 -4 -34 -19 -58 
-34 34 68 0 -51 51 -14 0 -9 -43 -29 -68 
-34 19 53 7 -43 36 -9 4 0 -39 -19 -63 
-34 4 39 14 -36 21 0 9 14 -29 -9 -53 
-34 -9 24 21 -29 7 4 9 19 -24 -4 -48 
-29 -24 4 26 -17 -9 14 14 29 -14 0 -43 
-29 -24 4 26 -17 -9 14 14 29 -14 0 -43 
-24 -24 0 24 -12 -12 14 14 24 -14 0 -39 
-24 -24 0 24 -12 -12 14 14 24 -14 0 -39 
-24 -29 -4 26 -9 -17 14 14 19 -19 4 -34 
-24 -29 -4 26 -9 -17 14 14 14 -19 4 -34 
-29 -24 4 26 -17 -9 9 9 9 -19 0 -34 
-34 -24 9 29 -21 -7 9 9 4 -19 -4 -34 
-39 -19 19 29 -29 0 9 9 0 -19 -9 -39 
-39 -19 19 29 -29 0 9 9 4 -19 -9 -39 
-39 -19 19 29 -29 0 9 9 9 -19 -9 -39 
-39 -19 19 29 -29 0 9 9 14 -19 -9 -39 
-39 -19 19 29 -29 0 9 9 19 -19 -9 -39 
-39 -14 24 26 -31 4 9 9 19 -19 -9 -39 
-39 -9 29 24 -34 9 4 9 19 -19 -9 -39 
-39 -4 34 21 -36 14 4 9 19 -19 -9 -39 
-39 0 39 19 -39 19 0 9 19 -19 -9 -39 
-39 -9 29 24 -34 9 0 9 19 -19 -9 -39 
-39 -19 19 29 -29 0 0 9 19 -19 -9 -39 
-39 -29 9 34 -24 -9 0 9 19 -19 -9 -39 
-39 -39 0 39 -19 -19 0 9 19 -19 -9 -39 
-39 -29 9 34 -24 -9 0 9 19 -19 -9 -39 
-34 -19 14 26 -24 -2 0 9 19 -19 -9 -39 
-34 -9 24 21 -29 7 0 9 19 -19 -9 -39 
-29 0 29 14 -29 14 0 9 19 -19 -9 -39 
-24 0 24 12 -24 12 0 9 19 -19 -9 -39 
-19 0 19 9 -19 9 0 9 19 -19 -9 -39 
-14 0 14 7 -14 7 0 9 19 -19 -9 -39 
-9 0 9 4 -9 4 0 9 19 -19 -9 -39 
-14 0 14 7 -14 7 0 9 19 -19 -9 -39 
-19 0 19 9 -19 9 0 9 14 -24 -9 -39 
-24 0 24 12 -24 12 0 9 14 -24 -9 -39 
-29 0 29 14 -29 14 0 9 9 -29 -9 -39 
-29 0 29 14 -29 14 0 9 9 -29 -9 -39 
-34 0 34 17 -34 17 0 4 9 -29 -9 -39 
-34 0 34 17 -34 17 0 4 9 -29 -9 -39 
-39 0 39 19 -39 19 0 0 9 -29 -9 -39 
-43 -9 34 26 -39 12 0 0 9 -29 -9 -39 
-48 -19 29 34 -39 4 4 0 9 -24 -9 -39 
-53 -29 24 41 -39 -2 4 0 9 -24 -9 -39 
-58 -39 19 48 -39 -9 9 0 9 -19 -9 -39 
-48 -34 14 41 -31 -9 9 0 9 -19 -9 -39 
-34 -24 9 29 -21 -7 9 4 14 -19 -9 -34 
-24 -19 4 21 -14 -7 9 4 14 -19 -9 -34 
-9 -9 0 9 -4 -4 9 9 19 -19 -9 -29 
-14 -9 4 12 -9 -2 9 9 19 -19 -9 -29 
-24 -9 14 17 -19 2 9 9 19 -19 -9 -29 
-24 -9 14 17 -19 2 9 9 19 -19 -9 -29 
-29 -14 14 21 -21 0 9 9 19 -14 -9 -29 
-34 -14 19 24 -26 2 9 9 19 -14 -9 -29 
-39 -19 19 29 -29 0 14 14 19 -9 -9 -34 
-39 -24 14 31 -26 -4 14 14 19 -9 -9 -34 
-34 -29 4 31 -19 -12 19 19 19 -4 -9 -34 
-34 -19 14 26 -24 -2 19 19 19 -4 -9 -34 
-29 -9 19 19 -24 4 19 19 14 -4 -9 -34 
-24 -4 19 14 -21 7 19 19 14 -4 -9 -29 
-19 0 19 9 -19 9 19 24 14 0 -4 -24 
-19 4 24 7 -21 14 19 24 19 0 -4 -24 
-14 14 29 0 -21 21 14 19 24 0 -4 -19 
-9 14 24 -2 -17 19 14 19 24 0 0 -19 
-4 19 24 -7 -14 21 9 19 29 0 4 -14 
0 19 19 -9 -9 19 14 24 34 4 4 -9 
9 19 9 -14 0 14 19 34 39 9 9 -4 
9 34 24 -21 -7 29 19 39 43 9 9 -4 
9 48 39 -29 -14 43 24 43 53 14 14 0 
4 48 43 -26 -19 46 24 43 53 19 19 4 
0 53 53 -26 -26 53 24 43 58 24 29 9 
0 39 39 -19 -19 39 24 43 63 29 34 14 
-4 24 29 -9 -17 26 24 43 68 34 39 19 
0 34 34 -17 -17 34 19 43 68 39 43 19 
9 43 34 -26 -12 39 14 39 68 43 48 24 
19 53 34 -36 -7 43 14 39 73 48 53 29 
29 63 34 -46 -2 48 14 43 78 53 63 34 
34 68 34 -51 0 51 14 48 82 58 63 39 
43 78 34 -61 4 56 14 53 92 63 63 43 
53 102 48 -78 2 75 9 53 92 63 63 43 
68 131 63 -100 2 97 0 53 92 63 63 43 
73 131 58 -102 7 95 -4 48 92 63 63 43 
78 136 58 -107 9 97 -14 43 87 63 63 43 
87 136 48 -112 19 92 -19 43 87 63 68 48 
97 141 43 -119 26 92 -29 48 87 68 73 53 
107 151 43 -129 31 97 -39 43 87 73 73 53 
117 161 43 -139 36 102 -48 39 87 78 78 58 
117 156 39 -136 39 97 -53 29 78 73 78 58 
117 146 29 -131 43 87 -63 14 68 63 78 58 
97 126 29 -112 34 78 -68 4 48 53 68 53 
78 102 24 -90 26 63 -78 -9 29 43 53 43 
68 92 24 -80 21 58 -78 -9 29 39 53 39 
58 78 19 -68 19 48 -78 -14 29 34 48 34 
63 82 19 -73 21 51 -78 -14 29 34 48 34 
68 87 19 -78 24 53 -73 -14 29 39 48 34 
68 87 19 -78 24 53 -68 -9 34 39 53 34 
68 92 24 -80 21 58 -63 0 39 39 58 39 
73 82 9 -78 31 46 -63 0 39 39 53 39 
78 73 -4 -75 41 34 -63 -4 39 34 48 39 
82 73 -9 -78 46 31 -58 -4 39 34 48 39 
87 73 -14 -80 51 29 -53 0 39 29 43 39 
92 73 -19 -82 56 26 -63 -4 39 24 39 34 
102 68 -34 -85 68 17 -73 -14 34 14 29 29 
102 63 -39 -82 70 12 -68 -14 34 14 29 29 
102 53 -48 -78 75 2 -63 -14 34 14 29 29 
97 43 -53 -70 75 -4 -63 -9 34 14 29 29 
92 29 -63 -61 78 -17 -58 -4 34 14 29 24 
82 24 -58 -53 70 -17 -58 -4 34 14 24 24 
68 14 -53 -41 60 -19 -58 -4 29 9 14 19 
43 9 -34 -26 39 -12 -48 -4 29 9 14 14 
19 0 -19 -9 19 -9 -39 0 29 9 9 4 
0 -14 -14 7 7 -14 -24 9 29 9 9 4 
-24 -29 -4 26 -9 -17 -9 19 34 9 9 4 
-29 -29 0 29 -14 -14 -4 19 34 14 14 4 
-34 -34 0 34 -17 -17 4 19 39 24 24 9 
-34 -34 0 34 -17 -17 4 14 34 19 14 4 
-34 -34 0 34 -17 -17 4 4 24 9 4 -4 
-39 -43 -4 41 -17 -24 9 4 19 4 4 -9 
-43 -58 -14 51 -14 -36 14 4 14 0 0 -19 
-48 -63 -14 56 -17 -39 14 4 14 -4 -9 -19 
-58 -73 -14 65 -21 -43 14 0 9 -14 -19 -24 
-58 -58 0 58 -29 -29 14 0 4 -14 -19 -24 
-58 -43 14 51 -36 -14 14 0 0 -14 -24 -24 
-63 -48 14 56 -39 -17 14 4 0 -14 -24 -24 
-73 -53 19 63 -46 -17 19 14 -4 -14 -29 -24 
-78 -53 24 65 -51 -14 19 9 -4 -14 -29 -24 
-87 -58 29 73 -58 -14 19 0 -4 -14 -29 -29 
-92 -68 24 80 -58 -21 19 0 -4 -14 -29 -29 
-97 -78 19 87 -58 -29 19 0 -4 -19 -29 -29 
-92 -78 14 85 -53 -31 19 0 -4 -19 -29 -29 
-82 -78 4 80 -43 -36 19 0 -4 -19 -29 -29 
-78 -78 0 78 -39 -39 19 0 -4 -19 -29 -29 
-68 -78 -9 73 -29 -43 19 0 -4 -19 -29 -29 
-68 -68 0 68 -34 -34 19 0 -9 -24 -29 -34 
-68 -53 14 61 -41 -19 19 0 -14 -29 -34 -39 
-73 -58 14 65 -43 -21 19 0 -14 -29 -34 -39 
-78 -63 14 70 -46 -24 19 4 -14 -29 -39 -43 
-82 -78 4 80 -43 -36 24 4 -14 -29 -39 -39 
-92 -97 -4 95 -43 -51 34 4 -9 -29 -39 -34 
-107 -97 9 102 -58 -43 34 -4 -24 -29 -39 -34 
-122 -97 24 109 -73 -36 34 -19 -39 -29 -43 -29 
-136 -92 43 114 -90 -24 34 -34 -68 -43 -58 -43 
-151 -82 68 117 -109 -7 34 -53 -102 -58 -73 -63 
-156 -82 73 119 -114 -4 39 -73 -126 -53 -68 -63 
-165 -82 82 124 -124 0 48 -92 -151 -43 -63 -68 
-156 -63 92 109 -124 14 48 -122 -165 -14 -34 -43 
-141 -43 97 92 -119 26 43 -151 -180 19 -4 -14 
-126 -43 82 85 -104 19 43 -175 -224 9 0 0 
-107 -39 68 73 -87 14 48 -200 -273 0 9 14 
-82 19 102 31 -92 61 0 -278 -366 24 43 53 
-53 78 131 -12 -92 104 -53 -356 -458 53 82 92 
-29 195 224 -82 -126 209 -122 -444 -556 78 131 141 
-4 317 322 -156 -163 319 -195 -536 -653 107 180 195 
19 419 400 -219 -190 409 -287 -658 -790 117 219 253 
48 522 473 -285 -212 497 -380 -780 -927 126 258 317 
58 556 497 -307 -219 527 -429 -873 -1049 87 258 346 
68 590 522 -329 -226 556 -478 -966 -1176 48 253 380 
122 546 424 -334 -151 485 -512 -985 -1234 -53 209 370 
175 502 326 -339 -75 414 -551 -1005 -1293 -161 161 356 
224 366 141 -295 41 253 -507 -936 -1268 -312 58 292 
273 224 -48 -248 161 87 -463 -863 -1239 -463 -48 229 
331 -29 -361 -151 346 -195 -312 -634 -1058 -619 -195 131 
390 -283 -673 -53 531 -478 -161 -400 -878 -775 -341 34 
395 -385 -780 -4 588 -583 -78 -307 -785 -800 -375 4 
400 -488 -888 43 644 -688 9 -209 -688 -829 -414 -24 
409 -409 -819 0 614 -614 -34 -219 -624 -741 -361 9 
419 -326 -746 -46 583 -536 -78 -229 -561 -649 -302 43 
419 -239 -658 -90 539 -448 -102 -214 -492 -556 -244 68 
419 -151 -570 -134 495 -361 -126 -195 -419 -463 -180 92 
361 -141 -502 -109 431 -322 -117 -161 -356 -400 -151 82 
297 -126 -424 -85 361 -275 -107 -126 -292 -331 -117 73 
219 -92 -312 -63 265 -202 -107 -141 -268 -283 -107 48 
141 -53 -195 -43 168 -124 -112 -156 -239 -229 -92 19 
92 -68 -161 -12 126 -114 -78 -126 -190 -190 -78 4 
43 -82 -126 19 85 -104 -43 -92 -141 -146 -58 -9 
4 -87 -92 41 48 -90 -19 -68 -102 -122 -43 -9 
-39 -97 -58 68 9 -78 4 -39 -63 -92 -29 -14 
-48 -97 -48 73 0 -73 14 -24 -48 -73 -29 -14 
-63 -102 -39 82 -12 -70 29 -9 -34 -53 -24 -19 
-63 -107 -43 85 -9 -75 34 0 -24 -43 -24 -19 
-63 -117 -53 90 -4 -85 43 14 -14 -29 -24 -19 
-63 -102 -39 82 -12 -70 43 14 -9 -29 -24 -19 
-63 -82 -19 73 -21 -51 43 19 -4 -24 -19 -19 
-63 -63 0 63 -31 -31 43 19 0 -24 -19 -19 
-58 -39 19 48 -39 -9 43 19 4 -19 -14 -19 
-58 -39 19 48 -39 -9 43 19 0 -19 -14 -19 
-58 -39 19 48 -39 -9 43 19 -4 -19 -14 -19 
-63 -39 24 51 -43 -7 43 19 -4 -14 -14 -19 
-68 -43 24 56 -46 -9 43 24 0 -4 -14 -14 
-68 -68 0 68 -34 -34 43 24 4 0 -9 -14 
-68 -97 -29 82 -19 -63 43 24 14 4 0 -9 
-68 -117 -48 92 -9 -82 43 24 19 9 4 -9 
-68 -136 -68 102 0 -102 43 29 29 14 14 -4 
-78 -122 -43 100 -17 -82 43 29 29 14 9 -4 
-87 -107 -19 97 -34 -63 43 29 29 9 4 -4 
-87 -92 -4 90 -41 -48 43 29 29 4 0 -4 
-82 -78 4 80 -43 -36 43 24 29 0 -4 -4 
-82 -82 0 82 -41 -41 43 24 29 0 -4 -4 
-82 -87 -4 85 -39 -46 39 19 29 0 -9 -9 
-82 -92 -9 87 -36 -51 39 19 29 0 -9 -9 
-82 -97 -14 90 -34 -56 39 14 29 4 -9 -14 
-82 -87 -4 85 -39 -46 39 14 29 4 -9 -14 
-78 -73 4 75 -41 -34 34 14 24 0 -14 -14 
-78 -73 4 75 -41 -34 34 14 24 0 -14 -14 
-78 -78 0 78 -39 -39 29 9 19 -4 -19 -19 
-73 -68 4 70 -39 -31 29 9 19 -4 -19 -24 
-63 -58 4 61 -34 -26 24 9 19 -4 -24 -29 
-53 -48 4 51 -29 -21 24 9 19 -4 -24 -34 
-43 -39 4 41 -24 -17 24 9 19 -4 -24 -39 
-43 -43 0 43 -21 -21 24 14 19 0 -19 -29 
-48 -53 -4 51 -21 -29 29 19 24 4 -14 -14 
-58 -63 -4 61 -26 -34 29 19 29 4 -14 -9 
-73 -73 0 73 -36 -36 29 24 34 9 -9 0 
-73 -63 9 68 -41 -26 29 24 34 14 -9 0 
-73 -48 24 61 -48 -12 29 24 34 19 -9 0 
-68 -39 29 53 -48 -4 24 24 34 24 -9 0 
-63 -24 39 43 -51 7 19 24 34 29 -9 4 
-63 -39 24 51 -43 -7 29 24 34 29 -9 9 
-63 -53 9 58 -36 -21 39 24 29 24 -9 14 
-58 -43 14 51 -36 -14 29 24 29 19 -9 9 
-53 -29 24 41 -39 -2 19 19 24 14 -9 0 
-53 -53 0 53 -26 -26 29 19 24 14 0 4 
-58 -78 -19 68 -19 -48 39 19 29 19 9 14 
-58 -63 -4 61 -26 -34 39 19 29 19 4 9 
-53 -48 4 51 -29 -21 34 14 29 19 -4 4 
-48 -39 9 43 -29 -14 34 14 29 19 -9 0 
-39 -29 9 34 -24 -9 34 14 29 19 -14 -4 
-39 -19 19 29 -29 0 34 14 29 19 -19 -4 
-39 -9 29 24 -34 9 34 14 29 19 -24 -9 
-39 -14 24 26 -31 4 24 14 29 19 -24 -9 
-39 -24 14 31 -26 -4 14 14 34 14 -24 -9 
-39 -29 9 34 -24 -9 9 14 34 14 -24 -9 
-39 -39 0 39 -19 -19 0 14 39 14 -24 -9 
-39 -34 4 36 -21 -14 4 19 39 19 -19 -4 
-39 -29 9 34 -24 -9 9 24 39 29 -9 4 
-39 -34 4 36 -21 -14 14 29 43 34 0 14 
-39 -43 -4 41 -17 -24 24 34 48 39 14 24 
-34 -43 -9 39 -12 -26 24 34 48 39 9 19 
-29 -43 -14 36 -7 -29 24 34 43 39 4 14 
-29 -34 -4 31 -12 -19 24 34 43 39 4 14 
-24 -19 4 21 -14 -7 24 29 39 34 4 14 
-24 -34 -9 29 -7 -21 24 29 39 34 4 14 
-19 -48 -29 34 4 -39 24 24 39 29 4 9 
-14 -48 -34 31 9 -41 19 24 39 29 4 9 
-4 -43 -39 24 17 -41 14 19 39 29 4 4 
-14 -34 -19 24 2 -26 14 19 39 29 4 4 
-24 -24 0 24 -12 -12 9 19 39 29 4 4 
-24 -19 4 21 -14 -7 9 19 39 29 4 4 
-29 -9 19 19 -24 4 9 19 39 29 4 4 
-29 -24 4 26 -17 -9 9 19 39 34 4 9 
-29 -39 -9 34 -9 -24 14 19 43 39 9 14 
-29 -43 -14 36 -7 -29 14 19 43 43 9 19 
-34 -48 -14 41 -9 -31 19 19 43 48 14 24 
-34 -48 -14 41 -9 -31 19 19 43 48 14 24 
-34 -43 -9 39 -12 -26 19 14 43 48 9 24 
-34 -43 -9 39 -12 -26 19 14 43 48 9 24 
-29 -43 -14 36 -7 -29 19 14 43 48 9 24 
-24 -29 -4 26 -9 -17 14 14 43 43 4 19 
-19 -14 4 17 -12 -4 9 19 43 39 0 14 
-14 0 14 7 -14 7 9 19 43 34 0 14 
-4 19 24 -7 -14 21 4 19 48 29 -4 14 
-4 -4 0 4 -2 -2 14 29 53 34 -4 14 
-4 -34 -29 19 12 -31 24 39 63 39 0 14 
-4 -39 -34 21 14 -36 19 39 58 43 0 14 
-9 -48 -39 29 14 -43 14 34 53 48 0 14 
-9 -53 -43 31 17 -48 19 34 58 48 0 14 
-14 -58 -43 36 14 -51 29 34 63 48 0 14 
-14 -63 -48 39 17 -56 24 34 63 48 0 14 
-14 -68 -53 41 19 -60 19 34 63 48 0 14 
-9 -58 -48 34 19 -53 14 29 58 48 0 14 
-4 -48 -43 26 19 -46 9 19 53 48 -4 9 
-4 -53 -48 29 21 -51 9 19 53 48 -4 9 
-4 -63 -58 34 26 -61 4 14 48 48 -4 9 
-14 -48 -34 31 9 -41 4 14 48 48 -4 9 
-24 -29 -4 26 -9 -17 4 19 43 48 -4 9 
-29 -24 4 26 -17 -9 9 24 43 53 0 14 
-39 -19 19 29 -29 0 14 34 39 58 9 19 
-24 -14 9 19 -17 -2 14 34 48 63 9 24 
-4 -4 0 4 -2 -2 19 34 58 68 14 29 
4 4 0 -4 2 2 19 34 63 68 14 29 
19 14 -4 -17 12 4 19 29 73 73 14 29 
19 14 -4 -17 12 4 14 29 73 78 19 29 
14 9 -4 -12 9 2 9 29 73 82 24 29 
14 4 -9 -9 12 -2 9 29 73 82 29 29 
14 -4 -19 -4 17 -12 9 29 73 82 34 29 
14 -9 -24 -2 19 -17 9 29 73 82 29 29 
9 -14 -24 2 17 -19 9 34 68 78 24 29 
9 -9 -19 0 14 -14 9 34 68 73 19 29 
4 -4 -9 0 7 -7 9 34 68 68 14 24 
4 -4 -9 0 7 -7 9 34 68 68 14 24 
4 0 -4 -2 4 -2 9 39 73 68 14 24 
9 9 0 -9 4 4 9 39 73 68 14 24 
14 19 4 -17 4 12 9 39 73 68 9 19 
14 9 -4 -12 9 2 9 39 73 68 9 19 
19 0 -19 -9 19 -9 14 39 78 68 9 24 
19 -9 -29 -4 24 -19 14 39 78 68 9 24 
19 -24 -43 2 31 -34 19 43 82 68 9 24 
19 -14 -34 -2 26 -24 14 43 82 68 9 24 
19 0 -19 -9 19 -9 9 43 87 68 9 29 
19 0 -19 -9 19 -9 14 48 92 78 19 34 
24 0 -24 -12 24 -12 19 53 97 87 29 43 
29 19 -9 -24 19 4 19 53 97 87 34 43 
34 39 4 -36 14 21 19 53 97 87 39 43 
34 53 19 -43 7 36 19 53 97 87 39 43 
34 68 34 -51 0 51 19 58 97 82 39 43 
34 58 24 -46 4 41 19 68 107 87 39 48 
29 43 14 -36 7 29 19 78 117 92 39 58 
29 29 0 -29 14 14 19 87 126 97 43 68 
24 14 -9 -19 17 2 24 97 136 107 53 82 
19 14 -4 -17 12 4 24 92 136 107 48 73 
14 9 -4 -12 9 2 24 87 131 102 43 58 
4 9 4 -7 0 7 24 82 126 97 39 48 
-4 9 14 -2 -9 12 19 78 117 92 34 34 
4 24 19 -14 -7 21 19 78 117 92 34 34 
19 39 19 -29 0 29 19 78 117 92 29 34 
24 48 24 -36 0 36 19 82 117 92 29 34 
34 58 24 -46 4 41 19 87 117 92 29 39 
34 58 24 -46 4 41 19 87 117 92 34 43 
34 63 29 -48 2 46 24 82 122 97 39 48 
34 68 34 -51 0 51 24 82 122 97 43 48 
39 78 39 -58 0 58 29 87 126 102 48 53 
39 82 43 -61 -2 63 29 87 126 102 48 53 
39 87 48 -63 -4 68 34 92 126 102 53 53 
39 92 53 -65 -7 73 34 92 126 102 53 53 
39 102 63 -70 -12 82 34 92 126 97 53 58 
39 87 48 -63 -4 68 34 97 126 97 53 58 
34 73 39 -53 -2 56 39 102 131 92 48 58 
29 58 29 -43 0 43 43 102 131 87 48 58 
24 43 19 -34 2 31 48 107 136 82 43 58 
24 43 19 -34 2 31 48 107 136 82 43 58 
19 43 24 -31 -2 34 48 102 131 82 43 53 
19 34 14 -26 2 24 48 102 131 82 43 53 
19 19 0 -19 9 9 48 102 131 82 43 58 
24 43 19 -34 2 31 43 102 126 82 39 48 
34 73 39 -53 -2 56 34 97 117 82 34 39 
39 78 39 -58 0 58 29 92 112 82 34 39 
43 82 39 -63 2 60 24 82 107 78 29 34 
43 92 48 -68 -2 70 24 78 102 78 29 34 
39 102 63 -70 -12 82 19 73 97 82 29 29 
39 102 63 -70 -12 82 19 73 97 82 29 29 
34 97 63 -65 -14 80 24 73 97 87 34 29 
29 92 63 -61 -17 78 19 73 92 87 34 29 
19 87 68 -53 -24 78 14 73 87 82 39 24 
14 82 68 -48 -26 75 14 68 82 82 39 24 
9 78 68 -43 -29 73 14 63 78 78 34 24 
9 73 63 -41 -26 68 9 58 73 78 34 24 
4 68 63 -36 -29 65 4 53 68 78 29 29 
4 63 58 -34 -26 61 4 53 68 78 29 29 
4 53 48 -29 -21 51 4 48 63 78 29 34 
4 43 39 -24 -17 41 4 48 63 73 29 29 
0 34 34 -17 -17 34 9 48 58 68 24 19 
0 24 24 -12 -12 24 9 48 58 68 24 19 
-4 9 14 -2 -9 12 14 48 58 68 24 19 
-4 14 19 -4 -12 17 14 43 53 68 24 9 
-4 24 29 -9 -17 26 14 34 48 63 24 0 
-4 29 34 -12 -19 31 14 34 43 63 19 -4 
-9 39 48 -14 -29 43 9 29 39 63 14 -9 
-4 39 43 -17 -24 41 9 29 39 63 14 -9 
4 34 29 -19 -12 31 9 24 34 58 9 -9 
9 39 29 -24 -9 34 9 24 34 58 9 -9 
19 48 29 -34 -4 39 9 24 34 53 9 -9 
9 39 29 -24 -9 34 14 24 34 53 9 -4 
0 24 24 -12 -12 24 19 24 34 53 14 0 
-4 9 14 -2 -9 12 19 24 34 53 14 4 
-14 -9 4 12 -9 -2 24 24 34 48 19 9 
-9 -9 0 9 -4 -4 24 19 34 48 19 9 
-4 -9 -4 7 0 -7 24 14 29 48 19 4 
-9 -19 -9 14 0 -14 24 19 29 48 19 4 
-14 -29 -14 21 0 -21 24 24 29 53 19 4 
-9 -19 -9 14 0 -14 24 24 29 53 19 4 
-4 -9 -4 7 0 -7 24 24 29 53 19 4 
-4 -4 0 4 -2 -2 24 24 29 53 19 4 
0 0 0 0 0 0 19 24 24 53 19 4 
-4 -4 0 4 -2 -2 19 19 24 48 14 0 
-9 -9 0 9 -4 -4 19 9 19 43 9 -9 
-14 -4 9 9 -12 2 19 9 19 43 9 -9 
-19 4 24 7 -21 14 19 9 19 43 9 -14 
-19 -9 9 14 -14 0 19 9 24 43 9 -14 
-19 -29 -9 24 -4 -19 24 14 29 48 14 -9 
-24 -34 -9 29 -7 -21 24 14 29 48 14 -9 
-29 -39 -9 34 -9 -24 24 14 34 48 14 -9 
-29 -43 -14 36 -7 -29 24 14 34 48 14 -9 
-29 -48 -19 39 -4 -34 24 14 34 43 9 -9 
-29 -48 -19 39 -4 -34 24 19 34 43 9 -9 
-29 -48 -19 39 -4 -34 24 24 34 43 4 -9 
-29 -39 -9 34 -9 -24 24 19 34 43 4 -9 
-29 -29 0 29 -14 -14 19 14 34 39 4 -14 
-34 -34 0 34 -17 -17 19 14 34 39 4 -14 
-39 -39 0 39 -19 -19 14 14 34 39 4 -14 
-34 -29 4 31 -19 -12 14 14 34 39 4 -14 
-29 -19 9 24 -19 -4 9 14 34 43 9 -14 
-29 -14 14 21 -21 0 9 14 34 43 9 -14 
-29 -9 19 19 -24 4 9 14 34 43 9 -14 
-29 -9 19 19 -24 4 9 14 34 43 9 -14 
-29 -9 19 19 -24 4 9 14 34 48 9 -14 
-29 -14 14 21 -21 0 14 14 39 48 14 -9 
-29 -24 4 26 -17 -9 19 14 43 48 19 -4 
-29 -14 14 21 -21 0 14 14 39 48 14 -9 
-24 -4 19 14 -21 7 9 14 29 43 4 -19 
-24 -9 14 17 -19 2 9 14 29 43 4 -19 
-19 -19 0 19 -9 -9 9 14 24 43 0 -24 
-19 -24 -4 21 -7 -14 9 14 24 43 0 -24 
-19 -29 -9 24 -4 -19 14 14 24 43 0 -24 
-19 -29 -9 24 -4 -19 14 14 24 43 0 -24 
-19 -34 -14 26 -2 -24 14 14 24 43 0 -24 
-19 -24 -4 21 -7 -14 14 14 24 43 0 -24 
-14 -14 0 14 -7 -7 14 14 24 39 0 -24 
-14 -9 4 12 -9 -2 14 14 24 39 0 -24 
-14 -4 9 9 -12 2 14 14 24 39 0 -24 
-14 0 14 7 -14 7 14 14 24 39 0 -24 
-14 9 24 2 -19 17 9 9 24 39 0 -24 
-14 -4 9 9 -12 2 9 9 24 39 0 -24 
-14 -19 -4 17 -4 -12 9 9 24 39 0 -24 
-19 -29 -9 24 -4 -19 14 14 29 43 9 -19 
-24 -43 -19 34 -2 -31 19 19 34 48 19 -9 
-24 -53 -29 39 2 -41 24 19 39 53 29 -4 
-24 -63 -39 43 7 -51 29 24 48 58 39 4 
-24 -34 -9 29 -7 -21 19 19 39 48 29 -4 
-24 0 24 12 -24 12 4 14 29 39 14 -14 
-19 24 43 -2 -31 34 0 9 29 34 9 -19 
-9 48 58 -19 -34 53 -9 4 29 29 4 -29 
-9 29 39 -9 -24 34 -4 9 29 29 4 -29 
-14 4 19 4 -17 12 4 14 29 34 4 -29 
-14 -14 0 14 -7 -7 14 14 29 34 4 -24 
-9 -39 -29 24 9 -34 24 14 29 34 9 -19 
-14 -39 -24 26 4 -31 19 14 29 34 9 -19 
-19 -34 -14 26 -2 -24 9 14 29 34 9 -19 
-24 -19 4 21 -14 -7 0 9 29 34 9 -19 
-29 -4 24 17 -26 9 -14 4 29 34 9 -24 
-29 -4 24 17 -26 9 -9 4 29 34 9 -24 
-29 -9 19 19 -24 4 -4 4 29 39 14 -24 
-29 -24 4 26 -17 -9 0 4 29 39 14 -19 
-29 -39 -9 34 -9 -24 4 4 29 43 19 -14 
-29 -24 4 26 -17 -9 4 4 29 43 19 -14 
-24 -9 14 17 -19 2 4 4 29 43 19 -14 
-24 0 24 12 -24 12 4 4 29 43 19 -14 
-24 9 34 7 -29 21 0 0 24 43 19 -14 
-24 9 34 7 -29 21 0 4 24 43 19 -14 
-24 14 39 4 -31 26 0 9 24 43 19 -14 
-24 -4 19 14 -21 7 0 19 24 43 19 -14 
-24 -24 0 24 -12 -12 4 29 24 43 19 -14 
-24 -19 4 21 -14 -7 4 24 24 39 19 -14 
-19 -9 9 14 -14 0 4 14 24 29 14 -19 
-19 4 24 7 -21 14 4 9 24 24 14 -19 
-14 19 34 -2 -24 26 4 0 19 19 9 -19 
-14 9 24 2 -19 17 4 0 19 19 9 -19 
-14 0 14 7 -14 7 4 4 19 19 9 -19 
-19 -14 4 17 -12 -4 4 9 19 19 9 -19 
-24 -34 -9 29 -7 -21 4 14 24 19 9 -19 
-24 -39 -14 31 -4 -26 4 14 24 19 9 -19 
-29 -48 -19 39 -4 -34 9 19 29 24 14 -19 
-29 -53 -24 41 -2 -39 9 24 34 29 19 -14 
-34 -63 -29 48 -2 -46 14 29 43 34 24 -9 
-34 -48 -14 41 -9 -31 14 24 39 24 14 -19 
-34 -29 4 31 -19 -12 14 14 29 14 4 -29 
-34 -29 4 31 -19 -12 14 14 29 14 4 -29 
-34 -24 9 29 -21 -7 14 14 29 14 4 -34 
-34 -14 19 24 -26 2 14 14 29 14 4 -34 
-29 0 29 14 -29 14 14 9 24 14 9 -29 
-19 4 24 7 -21 14 14 9 24 14 9 -29 
-9 14 24 -2 -17 19 14 9 19 9 9 -29 
-14 4 19 4 -17 12 14 9 19 9 9 -29 
-24 -9 14 17 -19 2 14 4 19 4 9 -34 
-24 -19 4 21 -14 -7 14 4 19 4 9 -34 
-29 -34 -4 31 -12 -19 9 0 19 4 4 -34 
-29 -9 19 19 -24 4 9 0 19 4 4 -34 
-24 14 39 4 -31 26 9 4 19 0 0 -39 
-24 29 53 -2 -39 41 9 4 19 0 0 -39 
-19 48 68 -14 -43 58 9 4 24 -4 4 -43 
-19 43 63 -12 -41 53 9 4 24 -4 4 -43 
-19 39 58 -9 -39 48 9 4 24 -4 4 -39 
-19 34 53 -7 -36 43 9 4 24 -4 4 -39 
-19 29 48 -4 -34 39 9 4 24 -4 4 -39 
-19 9 29 4 -24 19 14 9 29 -4 4 -39 
-19 -9 9 14 -14 0 19 14 34 0 9 -34 
-19 -29 -9 24 -4 -19 19 19 34 0 9 -34 
-19 -48 -29 34 4 -39 24 24 39 4 14 -29 
-24 -48 -24 36 0 -36 24 24 39 4 14 -29 
-29 -43 -14 36 -7 -29 24 24 39 4 14 -29 
-29 -39 -9 34 -9 -24 24 24 39 4 14 -29 
-34 -29 4 31 -19 -12 24 24 39 4 9 -29 
-39 -24 14 31 -26 -4 24 24 39 4 9 -29 
-43 -14 29 29 -36 7 19 19 34 0 4 -24 
-43 -9 34 26 -39 12 19 19 29 0 4 -34 
-43 -4 39 24 -41 17 19 14 24 -4 0 -43 
-34 9 43 12 -39 26 19 14 24 -4 0 -43 
-24 24 48 0 -36 36 19 14 24 -4 -4 -43 
-29 19 48 4 -39 34 19 14 24 -4 -4 -43 
-34 14 48 9 -41 31 19 14 24 -4 -4 -43 
-34 4 39 14 -36 21 19 14 24 -4 -4 -43 
-39 -4 34 21 -36 14 19 14 29 -4 0 -43 
-39 -14 24 26 -31 4 19 14 29 -4 0 -43 
-39 -24 14 31 -26 -4 19 19 34 -4 4 -43 
-39 -24 14 31 -26 -4 19 19 34 -4 4 -43 
-39 -24 14 31 -26 -4 19 19 34 -4 4 -43 
-43 -24 19 34 -31 -2 19 19 34 -4 4 -43 
-48 -24 24 36 -36 0 14 19 34 -4 4 -43 
-43 -19 24 31 -34 2 14 19 34 -4 4 -43 
-39 -9 29 24 -34 9 14 19 29 -4 4 -43 
-39 -4 34 21 -36 14 14 19 29 -9 4 -48 
-39 0 39 19 -39 19 14 19 24 -14 0 -53 
-39 0 39 19 -39 19 14 14 24 -14 0 -53 
-43 4 48 19 -46 26 19 9 19 -14 0 -53 
-43 4 48 19 -46 26 19 9 19 -14 0 -53 
-43 4 48 19 -46 26 24 9 19 -14 0 -48 
-43 -9 34 26 -39 12 24 14 24 -14 4 -48 
-43 -29 14 36 -29 -7 29 19 29 -9 9 -43 
-43 -43 0 43 -21 -21 29 19 29 -9 9 -43 
-39 -63 -24 51 -7 -43 34 24 29 -4 9 -43 
-39 -58 -19 48 -9 -39 34 24 29 -4 9 -43 
-34 -53 -19 43 -7 -36 29 24 34 -4 9 -39 
-34 -53 -19 43 -7 -36 29 24 34 -4 9 -39 
-34 -48 -14 41 -9 -31 24 24 39 -9 14 -34 
-34 -48 -14 41 -9 -31 24 24 39 -9 9 -34 
-34 -43 -9 39 -12 -26 19 19 34 -14 4 -39 
-34 -43 -9 39 -12 -26 19 19 34 -14 4 -43 
-39 -39 0 39 -19 -19 19 19 29 -19 0 -48 
-39 -39 0 39 -19 -19 19 19 29 -19 0 -48 
-39 -34 4 36 -21 -14 19 19 24 -19 0 -48 
-39 -34 4 36 -21 -14 19 19 24 -19 0 -48 
-39 -29 9 34 -24 -9 19 19 19 -19 0 -48 
-39 -24 14 31 -26 -4 19 19 19 -19 0 -48 
-43 -19 24 31 -34 2 24 19 19 -14 4 -48 
-43 -14 29 29 -36 7 24 19 19 -14 4 -48 
-48 -9 39 29 -43 14 29 19 19 -9 9 -48 
-48 -9 39 29 -43 14 29 19 24 -9 9 -48 
-48 -9 39 29 -43 14 29 19 29 -9 9 -48 
-48 -9 39 29 -43 14 29 19 34 -9 9 -48 
-48 -9 39 29 -43 14 29 19 39 -9 9 -48 
-48 -4 43 26 -46 19 24 19 34 -14 9 -48 
-48 4 53 21 -51 29 19 19 29 -19 4 -53 
-48 9 58 19 -53 34 14 19 24 -24 4 -53 
-48 19 68 14 -58 43 9 19 19 -29 0 -58 
-48 14 63 17 -56 39 9 19 19 -29 0 -58 
-43 4 48 19 -46 26 9 19 19 -29 0 -58 
-43 0 43 21 -43 21 9 19 19 -29 0 -58 
-39 -9 29 24 -34 9 9 19 19 -29 0 -58 
-39 -14 24 26 -31 4 14 19 19 -29 0 -58 
-39 -19 19 29 -29 0 19 19 19 -24 0 -58 
-39 -24 14 31 -26 -4 24 19 19 -24 0 -58 
-39 -29 9 34 -24 -9 29 19 19 -19 0 -58 
-39 -19 19 29 -29 0 29 19 19 -19 0 -58 
-43 -9 34 26 -39 12 29 19 24 -19 0 -58 
-43 0 43 21 -43 21 29 19 24 -19 0 -58 
-48 9 58 19 -53 34 29 19 29 -19 0 -58 
-48 -4 43 26 -46 19 29 19 29 -19 0 -58 
-48 -19 29 34 -39 4 29 24 29 -19 0 -53 
-48 -34 14 41 -31 -9 29 24 29 -19 0 -53 
-48 -48 0 48 -24 -24 29 29 29 -19 0 -48 
-48 -43 4 46 -26 -19 29 29 29 -19 0 -48 
-48 -39 9 43 -29 -14 29 29 29 -19 0 -43 
-48 -34 14 41 -31 -9 29 29 29 -19 0 -43 
-48 -29 19 39 -34 -4 29 29 29 -19 0 -39 
-48 -29 19 39 -34 -4 29 29 29 -19 0 -39 
-48 -29 19 39 -34 -4 29 29 29 -19 0 -39 
-48 -29 19 39 -34 -4 29 29 29 -19 0 -39 
-48 -29 19 39 -34 -4 29 29 29 -14 0 -39 
-48 -29 19 39 -34 -4 29 29 29 -14 0 -39 
-53 -29 24 41 -39 -2 29 29 29 -14 0 -43 
-53 -24 29 39 -41 2 29 29 29 -14 0 -43 
-58 -19 39 39 -48 9 29 29 29 -14 0 -43 
-53 -14 39 34 -46 12 29 29 29 -14 0 -43 
-48 -9 39 29 -43 14 29 24 34 -19 4 -39 
-48 0 48 24 -48 24 29 24 39 -19 4 -39 
-43 14 58 14 -51 36 34 19 43 -24 4 -39 
-39 4 43 17 -41 24 34 29 43 -19 9 -39 
-29 -4 24 17 -26 9 39 39 48 -9 14 -34 
-19 -14 4 17 -12 -4 39 43 48 0 14 -34 
-4 -24 -19 14 7 -21 39 53 53 9 19 -29 
-4 -4 0 4 -2 -2 39 53 58 9 19 -29 
0 19 19 -9 -9 19 34 53 63 14 24 -29 
0 34 34 -17 -17 34 34 53 63 19 29 -24 
0 48 48 -24 -24 48 34 53 68 24 34 -19 
0 43 43 -21 -21 43 34 53 73 29 34 -14 
4 34 29 -19 -12 31 34 53 78 34 39 -9 
4 43 39 -24 -17 41 29 53 78 39 43 -9 
9 53 43 -31 -17 48 24 53 78 43 48 -4 
9 63 53 -36 -21 58 24 58 82 43 53 0 
4 73 68 -39 -31 70 24 63 87 48 63 4 
4 73 68 -39 -31 70 24 68 92 48 63 9 
4 73 68 -39 -31 70 24 73 102 53 63 14 
19 87 68 -53 -24 78 19 73 102 53 63 14 
39 107 68 -73 -14 87 9 73 102 53 63 14 
43 107 63 -75 -9 85 4 68 102 53 63 14 
48 102 53 -75 -2 78 -4 58 97 53 63 14 
53 97 43 -75 4 70 -9 63 97 58 68 19 
58 92 34 -75 12 63 -19 68 102 63 78 29 
68 97 29 -82 19 63 -29 68 102 68 82 34 
78 102 24 -90 26 63 -39 68 107 78 87 39 
82 107 24 -95 29 65 -48 53 97 73 87 39 
87 112 24 -100 31 68 -58 34 87 63 87 39 
82 112 29 -97 26 70 -68 19 68 53 78 34 
73 112 39 -92 17 75 -78 0 48 43 63 24 
73 112 39 -92 17 75 -78 -4 48 39 58 19 
68 107 39 -87 14 73 -78 -9 43 34 48 14 
68 107 39 -87 14 73 -78 -9 43 34 43 14 
68 102 34 -85 17 68 -73 -14 39 34 39 14 
63 97 34 -80 14 65 -68 -9 43 34 48 14 
53 92 39 -73 7 65 -58 0 48 34 58 19 
53 78 24 -65 14 51 -58 0 48 34 58 19 
48 58 9 -53 19 34 -53 0 48 34 58 19 
43 39 -4 -41 24 17 -48 9 48 34 58 19 
39 19 -19 -29 29 0 -43 19 48 29 53 24 
39 14 -24 -26 31 -4 -53 19 48 24 48 24 
43 4 -39 -24 41 -17 -63 14 43 14 39 19 
53 19 -34 -36 43 -7 -63 9 43 14 39 19 
63 39 -24 -51 43 7 -58 4 43 14 39 19 
73 43 -29 -58 51 7 -58 4 43 14 39 19 
82 48 -34 -65 58 7 -58 4 43 14 39 14 
78 29 -48 -53 63 -9 -58 4 43 14 34 9 
68 9 -58 -39 63 -24 -63 4 39 9 24 4 
43 -4 -48 -19 46 -26 -58 4 39 9 24 -4 
19 -24 -43 2 31 -34 -48 4 39 9 19 -14 
-4 -24 -19 14 7 -21 -34 14 39 9 19 -14 
-29 -24 4 26 -17 -9 -19 24 43 9 19 -14 
-34 -14 19 24 -26 2 -14 24 43 14 24 -14 
-43 -4 39 24 -41 17 -4 29 43 19 29 -14 
-43 -9 34 26 -39 12 -4 24 34 9 19 -24 
-43 -19 24 31 -34 2 -4 14 24 0 4 -34 
-48 -34 14 41 -31 -9 0 14 19 -4 4 -39 
-58 -48 9 53 -34 -19 4 14 14 -9 0 -48 
-68 -43 24 56 -46 -9 4 9 9 -14 -9 -48 
-78 -39 39 58 -58 0 4 4 4 -24 -19 -53 
-78 -34 43 56 -61 4 4 4 0 -24 -19 -53 
-78 -24 53 51 -65 14 4 0 -4 -24 -19 -53 
-82 -53 29 68 -56 -12 4 4 -4 -24 -19 -53 
-92 -82 9 87 -51 -36 9 14 -4 -24 -19 -53 
-92 -82 9 87 -51 -36 9 9 -4 -24 -19 -53 
-92 -82 9 87 -51 -36 9 0 -4 -24 -19 -58 
-92 -82 9 87 -51 -36 9 0 -4 -24 -19 -58 
-92 -78 14 85 -53 -31 9 0 -4 -29 -19 -58 
-92 -78 14 85 -53 -31 9 0 -4 -29 -19 -58 
-97 -78 19 87 -58 -29 9 0 -4 -29 -19 -58 
-97 -82 14 90 -56 -34 9 0 0 -29 -19 -58 
-97 -87 9 92 -53 -39 9 4 4 -29 -19 -58 
-97 -82 14 90 -56 -34 9 4 4 -34 -19 -63 
-97 -73 24 85 -60 -24 9 4 4 -39 -24 -68 
-97 -63 34 80 -65 -14 9 4 4 -39 -29 -73 
-92 -48 43 70 -68 -2 9 4 4 -43 -39 -78 
-92 -48 43 70 -68 -2 14 4 4 -43 -43 -78 
-92 -48 43 70 -68 -2 24 4 0 -48 -48 -82 
-112 -53 58 82 -85 2 24 0 -14 -48 -48 -82 
-131 -58 73 95 -102 7 24 -9 -29 -48 -53 -87 
-146 -58 87 102 -117 14 24 -19 -53 -58 -63 -97 
-165 -53 112 109 -139 29 24 -34 -82 -73 -78 -107 
-175 -63 112 119 -143 24 34 -48 -97 -63 -73 -107 
-190 -78 112 134 -151 17 43 -63 -117 -53 -68 -107 
-180 -73 107 126 -143 17 39 -92 -131 -24 -43 -87 
-170 -63 107 117 -139 21 29 -122 -146 9 -14 -63 
-151 -82 68 117 -109 -7 43 -126 -175 -9 -19 -63 
-131 -107 24 119 -78 -41 58 -131 -209 -29 -29 -63 
-107 -68 39 87 -73 -14 24 -190 -278 -14 -9 -34 
-82 -24 58 53 -70 17 -14 -248 -351 0 14 -4 
-58 112 170 -26 -114 141 -87 -331 -424 53 87 68 
-34 248 283 -107 -158 265 -165 -419 -502 107 161 141 
-4 346 351 -170 -178 348 -248 -517 -610 126 209 204 
24 444 419 -234 -197 431 -331 -614 -722 151 263 273 
24 541 517 -283 -246 529 -405 -751 -893 126 278 317 
19 639 619 -329 -300 629 -478 -888 -1068 97 297 366 
63 644 580 -353 -258 612 -527 -936 -1151 24 273 370 
107 649 541 -378 -217 595 -575 -985 -1234 -53 248 380 
170 463 292 -317 -61 378 -527 -907 -1215 -229 126 317 
239 278 39 -258 100 158 -478 -824 -1190 -409 4 248 
297 53 -244 -175 270 -95 -366 -639 -1054 -566 -122 170 
356 -175 -531 -90 444 -353 -248 -453 -917 -722 -248 87 
356 -297 -653 -29 505 -475 -136 -346 -819 -766 -297 43 
356 -419 -775 31 566 -597 -24 -239 -722 -814 -351 0 
361 -414 -775 26 568 -595 -24 -209 -649 -771 -336 4 
366 -405 -771 19 568 -588 -19 -180 -570 -727 -322 14 
375 -312 -688 -31 531 -500 -53 -165 -492 -624 -248 53 
390 -214 -605 -87 497 -409 -92 -146 -414 -517 -170 97 
356 -195 -551 -80 453 -373 -92 -112 -346 -439 -126 102 
317 -175 -492 -70 405 -334 -87 -73 -278 -361 -82 112 
224 -146 -370 -39 297 -258 -92 -97 -253 -302 -73 78 
131 -117 -248 -7 190 -183 -97 -122 -229 -239 -63 43 
82 -122 -204 19 143 -163 -73 -102 -185 -195 -53 24 
34 -126 -161 46 97 -143 -43 -82 -141 -146 -39 0 
0 -126 -126 63 63 -126 -14 -53 -102 -122 -29 -4 
-34 -122 -87 78 26 -104 14 -19 -58 -97 -19 -14 
-53 -112 -58 82 2 -85 24 -9 -43 -82 -19 -24 
-73 -102 -29 87 -21 -65 39 4 -24 -68 -14 -34 
-73 -102 -29 87 -21 -65 39 9 -19 -63 -14 -39 
-73 -97 -24 85 -24 -60 43 19 -14 -58 -19 -43 
-73 -97 -24 85 -24 -60 43 24 -9 -58 -19 -43 
-78 -97 -19 87 -29 -58 43 29 -4 -53 -19 -48 
-78 -87 -9 82 -34 -48 43 29 0 -53 -19 -48 
-78 -73 4 75 -41 -34 43 29 4 -48 -14 -48 
-78 -68 9 73 -43 -29 43 29 4 -48 -14 -48 
-78 -58 19 68 -48 -19 43 29 4 -48 -14 -48 
-82 -58 24 70 -53 -17 43 29 14 -39 -14 -48 
-87 -63 24 75 -56 -19 43 34 24 -29 -9 -43 
-87 -68 19 78 -53 -24 43 34 24 -29 -9 -43 
-87 -78 9 82 -48 -34 43 34 29 -24 -4 -43 
-87 -78 9 82 -48 -34 43 34 29 -24 -4 -43 
-87 -78 9 82 -48 -34 43 39 29 -19 -4 -43 
-92 -68 24 80 -58 -21 43 39 29 -14 -4 -43 
-97 -58 39 78 -68 -9 43 39 29 -9 -4 -43 
-92 -58 34 75 -63 -12 43 39 29 -9 -4 -43 
-82 -53 29 68 -56 -12 43 34 29 -9 -4 -43 
-82 -63 19 73 -51 -21 43 34 29 -9 -4 -43 
-82 -78 4 80 -43 -36 39 34 34 -9 -4 -43 
-82 -82 0 82 -41 -41 39 34 34 -9 -4 -43 
-87 -87 0 87 -43 -43 39 29 39 -4 0 -43 
-87 -78 9 82 -48 -34 39 29 39 -4 0 -43 
-92 -68 24 80 -58 -21 39 29 39 -4 0 -43 
-92 -68 24 80 -58 -21 39 24 39 -4 -4 -43 
-97 -73 24 85 -60 -24 39 19 34 -9 -9 -48 
-97 -73 24 85 -60 -24 39 14 34 -9 -14 -48 
-97 -68 29 82 -63 -19 34 9 29 -14 -24 -48 
-97 -68 29 82 -63 -19 34 14 29 -14 -19 -48 
-92 -68 24 80 -58 -21 34 24 29 -14 -14 -48 
-87 -68 19 78 -53 -24 34 29 29 -14 -9 -43 
-82 -63 19 73 -51 -21 39 39 29 -9 0 -39 
-82 -63 19 73 -51 -21 39 34 29 -9 0 -39 
-87 -58 29 73 -58 -14 34 24 34 -9 0 -39 
-87 -58 29 73 -58 -14 34 19 34 -9 0 -39 
-82 -53 29 68 -56 -12 29 14 34 -9 0 -39 
-78 -48 29 63 -53 -9 24 14 34 -9 0 -39 
-73 -43 29 58 -51 -7 19 14 34 -9 0 -34 
-73 -43 29 58 -51 -7 29 14 34 -9 0 -29 
-73 -43 29 58 -51 -7 39 19 34 -4 0 -24 
-63 -19 43 41 -53 12 29 19 34 -4 0 -29 
-53 9 63 21 -58 36 19 24 34 -4 0 -39 
-53 -9 43 31 -48 17 24 24 34 -4 9 -34 
-53 -29 24 41 -39 -2 34 29 39 0 19 -24 
-58 -24 34 41 -46 4 29 29 39 0 14 -24 
-63 -14 48 39 -56 17 24 24 39 0 4 -29 
-63 -19 43 41 -53 12 24 24 39 0 4 -29 
-58 -29 29 43 -43 0 24 24 39 0 4 -24 
-58 -29 29 43 -43 0 24 24 39 0 4 -24 
-58 -34 24 46 -41 -4 24 24 39 4 4 -19 
-58 -34 24 46 -41 -4 24 24 39 4 4 -19 
-58 -34 24 46 -41 -4 19 24 39 4 4 -19 
-58 -34 24 46 -41 -4 19 24 39 4 4 -19 
-58 -29 29 43 -43 0 24 24 39 4 4 -19 
-58 -29 29 43 -43 0 24 24 39 9 4 -19 
-58 -29 29 43 -43 0 29 29 39 14 9 -14 
-53 -34 19 43 -36 -7 29 29 43 14 14 -9 
-48 -43 4 46 -26 -19 34 34 48 19 24 -4 
-43 -39 4 41 -24 -17 34 34 48 19 19 -9 
-34 -34 0 34 -17 -17 34 34 48 19 14 -14 
-39 -29 9 34 -24 -9 34 34 48 19 14 -14 
-43 -19 24 31 -34 2 34 29 48 14 14 -14 
-43 -34 9 39 -26 -12 34 29 48 14 14 -14 
-48 -48 0 48 -24 -24 34 29 48 14 14 -14 
-43 -43 0 43 -21 -21 29 29 48 14 14 -14 
-34 -34 0 34 -17 -17 24 29 48 19 14 -14 
-39 -34 4 36 -21 -14 24 29 48 19 14 -14 
-48 -29 19 39 -34 -4 19 29 48 19 14 -14 
-48 -29 19 39 -34 -4 19 29 48 19 14 -14 
-48 -29 19 39 -34 -4 19 29 53 19 14 -14 
-48 -34 14 41 -31 -9 19 29 58 19 14 -14 
-43 -39 4 41 -24 -17 19 29 63 19 14 -14 
-43 -29 14 36 -29 -7 19 29 63 19 14 -14 
-43 -14 29 29 -36 7 14 29 63 19 14 -14 
-43 -4 39 24 -41 17 14 29 63 19 14 -14 
-43 4 48 19 -46 26 9 24 63 19 9 -14 
-43 0 43 21 -43 21 9 24 63 19 9 -14 
-39 -4 34 21 -36 14 9 24 58 19 4 -14 
-39 -9 29 24 -34 9 9 24 58 19 4 -14 
-39 -19 19 29 -29 0 9 29 53 24 0 -14 
-34 -19 14 26 -24 -2 9 29 53 24 0 -9 
-29 -19 9 24 -19 -4 14 29 58 29 4 -4 
-29 -29 0 29 -14 -14 19 34 63 29 4 -4 
-24 -43 -19 34 -2 -31 24 43 68 29 9 -4 
-24 -34 -9 29 -7 -21 14 39 63 29 9 -4 
-29 -19 9 24 -19 -4 4 34 53 29 14 -4 
-29 -14 14 21 -21 0 9 34 58 29 14 -4 
-29 -9 19 19 -24 4 19 34 63 29 19 -4 
-29 -14 14 21 -21 0 14 34 63 29 19 -4 
-34 -19 14 26 -24 -2 9 34 68 34 19 -4 
-34 -9 24 21 -29 7 9 29 68 34 19 -4 
-34 4 39 14 -36 21 4 24 68 39 14 -9 
-24 4 29 9 -26 17 4 24 68 39 14 -9 
-14 4 19 4 -17 12 4 24 68 39 14 -4 
-9 4 14 2 -12 9 4 24 68 39 14 -4 
0 4 4 -2 -2 4 4 29 73 39 14 0 
-4 -19 -14 12 4 -17 9 34 73 43 19 4 
-9 -43 -34 26 12 -39 14 43 78 48 29 9 
-9 -53 -43 31 17 -48 14 43 78 48 29 9 
-9 -68 -58 39 24 -63 14 43 82 53 29 9 
-9 -53 -43 31 17 -48 14 39 82 53 29 4 
-9 -34 -24 21 7 -29 9 29 78 48 24 0 
-9 -14 -4 12 -2 -9 4 24 78 48 24 0 
-14 4 19 4 -17 12 0 19 73 43 24 0 
-14 14 29 0 -21 21 -9 19 73 39 19 -4 
-14 24 39 -4 -26 31 -19 19 73 34 14 -9 
-14 29 43 -7 -29 36 -24 19 73 39 9 -9 
-9 34 43 -12 -26 39 -34 24 73 43 4 -14 
-9 24 34 -7 -21 29 -24 24 73 43 9 -9 
-4 14 19 -4 -12 17 -14 29 78 48 14 -4 
-4 4 9 0 -7 7 -9 34 78 48 19 0 
-4 -9 -4 7 0 -7 0 39 82 48 29 9 
0 0 0 0 0 0 0 39 82 53 29 9 
4 9 4 -7 0 7 0 39 78 58 29 9 
4 9 4 -7 0 7 0 39 78 63 29 9 
4 14 9 -9 -2 12 0 39 78 68 29 14 
4 19 14 -12 -4 17 0 39 78 68 29 14 
0 29 29 -14 -14 29 0 39 82 68 29 14 
0 39 39 -19 -19 39 -4 39 82 68 29 14 
0 53 53 -26 -26 53 -9 34 87 68 29 14 
0 34 34 -17 -17 34 -4 39 92 78 39 19 
4 14 9 -9 -2 12 0 43 97 87 48 24 
9 14 4 -12 2 9 0 43 97 87 48 24 
14 14 0 -14 7 7 0 43 97 87 48 24 
14 24 9 -19 2 17 0 43 97 87 43 24 
14 39 24 -26 -4 31 0 48 97 82 34 24 
14 43 29 -29 -7 36 0 48 97 82 34 24 
14 48 34 -31 -9 41 0 53 102 82 29 24 
14 48 34 -31 -9 41 0 53 102 82 34 29 
14 43 29 -29 -7 36 4 58 107 82 43 34 
14 43 29 -29 -7 36 4 58 112 82 43 34 
14 39 24 -26 -4 31 9 63 117 82 43 34 
14 48 34 -31 -9 41 9 63 117 82 43 34 
14 63 48 -39 -17 56 4 58 112 82 43 34 
24 82 58 -53 -17 70 4 53 112 82 43 34 
34 102 68 -68 -17 85 0 48 107 82 39 34 
24 102 78 -63 -26 90 0 53 107 82 39 34 
14 107 92 -61 -39 100 -4 58 102 82 39 39 
4 107 102 -56 -48 104 -4 53 102 82 39 39 
-4 112 117 -53 -61 114 -9 48 97 82 39 39 
4 122 117 -63 -56 119 -9 48 97 82 39 39 
14 131 117 -73 -51 124 -9 48 97 82 39 34 
19 131 112 -75 -46 121 -9 48 97 82 39 34 
29 136 107 -82 -39 121 -4 53 97 82 43 34 
29 136 107 -82 -39 121 -4 53 97 82 43 34 
29 141 112 -85 -41 126 0 53 97 78 43 34 
29 141 112 -85 -41 126 0 53 97 78 43 34 
29 141 112 -85 -41 126 4 58 97 78 43 29 
29 136 107 -82 -39 121 9 58 97 78 43 29 
24 131 107 -78 -41 119 14 63 102 73 39 29 
24 126 102 -75 -39 114 14 63 102 73 39 29 
19 122 102 -70 -41 112 19 63 102 73 34 29 
14 102 87 -58 -36 95 19 63 102 73 34 34 
9 78 68 -43 -29 73 19 63 102 73 34 43 
9 82 73 -46 -31 78 14 63 97 73 34 39 
4 92 87 -48 -41 90 9 63 92 73 29 34 
9 92 82 -51 -36 87 9 63 92 73 29 34 
19 97 78 -58 -29 87 4 58 92 68 34 39 
24 102 78 -63 -26 90 4 58 92 68 34 39 
29 112 82 -70 -26 97 4 53 87 68 39 39 
29 97 68 -63 -19 82 9 53 87 68 43 43 
29 78 48 -53 -9 63 19 53 87 68 48 48 
29 73 43 -51 -7 58 19 53 82 68 48 48 
24 68 43 -46 -9 56 14 53 78 63 53 53 
24 68 43 -46 -9 56 14 48 73 63 48 48 
19 68 48 -43 -14 58 14 43 68 58 43 43 
19 68 48 -43 -14 58 9 39 63 58 43 39 
14 68 53 -41 -19 60 4 34 58 58 39 34 
9 58 48 -34 -19 53 4 34 58 58 39 34 
0 48 48 -24 -24 48 9 34 58 58 39 34 
-4 43 48 -19 -26 46 9 34 58 53 39 29 
-14 34 48 -9 -31 41 14 39 58 48 34 19 
-14 34 48 -9 -31 41 14 39 58 48 34 19 
-14 39 53 -12 -34 46 14 39 58 48 29 19 
-14 43 58 -14 -36 51 14 34 53 48 29 14 
-14 48 63 -17 -39 56 14 24 48 43 24 9 
-14 48 63 -17 -39 56 9 24 43 43 19 9 
-19 48 68 -14 -43 58 4 19 39 43 14 9 
-19 39 58 -9 -39 48 4 19 39 43 14 9 
-19 24 43 -2 -31 34 0 14 34 39 9 9 
-19 29 48 -4 -34 39 0 14 34 39 9 9 
-14 34 48 -9 -31 41 0 14 34 34 9 9 
-14 39 53 -12 -34 46 0 14 34 34 9 9 
-14 48 63 -17 -39 56 4 14 34 34 9 9 
-14 43 58 -14 -36 51 4 14 29 29 4 9 
-14 39 53 -12 -34 46 4 9 24 19 0 4 
-9 39 48 -14 -29 43 4 4 19 14 -4 0 
-4 39 43 -17 -24 41 4 -4 9 9 -9 -4 
-14 24 39 -4 -26 31 4 0 9 9 -9 -4 
-24 9 34 7 -29 21 4 4 9 14 -9 -4 
-29 9 39 9 -34 24 4 4 9 14 -9 -4 
-34 9 43 12 -39 26 4 4 9 14 -9 -4 
-34 0 34 17 -34 17 4 4 9 14 -9 -4 
-39 -9 29 24 -34 9 0 4 4 19 -4 0 
-39 -19 19 29 -29 0 0 0 4 19 -4 0 
-39 -29 9 34 -24 -9 0 -9 0 14 -9 -4 
-34 0 34 17 -34 17 0 -9 0 14 -9 -4 
-24 34 58 -4 -41 46 0 -9 0 14 -9 -4 
-19 39 58 -9 -39 48 0 -9 0 14 -9 -4 
-9 43 53 -17 -31 48 4 -4 4 19 -4 0 
-14 29 43 -7 -29 36 4 -4 4 19 0 0 
-19 14 34 2 -26 24 4 -4 9 24 4 0 
-19 0 19 9 -19 9 4 -4 9 24 4 0 
-19 -19 0 19 -9 -9 4 -4 14 24 9 0 
-19 -9 9 14 -14 0 4 0 14 24 4 0 
-19 0 19 9 -19 9 4 4 14 24 -4 -4 
-19 14 34 2 -26 24 4 0 14 24 -9 -9 
-19 29 48 -4 -34 39 4 -4 14 19 -14 -14 
-29 14 43 7 -36 29 4 -4 14 19 -14 -14 
-39 0 39 19 -39 19 4 -4 14 19 -14 -14 
-39 0 39 19 -39 19 4 -4 14 19 -14 -14 
-39 4 43 17 -41 24 0 -4 14 24 -9 -14 
-34 4 39 14 -36 21 0 -4 14 24 -9 -14 
-29 9 39 9 -34 24 0 -4 14 24 -9 -14 
-24 9 34 7 -29 21 0 -4 14 24 -9 -14 
-19 9 29 4 -24 19 0 -4 14 29 -9 -14 
-19 9 29 4 -24 19 4 -4 19 29 -4 -9 
-19 4 24 7 -21 14 9 -4 24 29 0 -4 
-19 19 39 0 -29 29 4 -4 19 29 -4 -9 
-19 34 53 -7 -36 43 0 -4 14 24 -9 -14 
-19 19 39 0 -29 29 0 -4 14 24 -9 -14 
-24 4 29 9 -26 17 0 -4 14 24 -9 -14 
-24 0 24 12 -24 12 0 -4 14 24 -9 -14 
-29 -9 19 19 -24 4 4 -4 14 24 -9 -14 
-29 -9 19 19 -24 4 4 -4 14 24 -9 -14 
-29 -4 24 17 -26 9 4 -4 14 24 -9 -14 
-29 0 29 14 -29 14 4 -4 14 24 -9 -14 
-24 4 29 9 -26 17 4 -4 14 24 -9 -14 
